;RAW4.00
[RawHeader]
Date=09/05/2019
EstimatedTotalTime=0
FurtherDQLReading=0
HardwareIndicator=65519
MeasuredTotalTime=0
MeasurementFlag=1
NumberOfMeasuredRanges=1
NumberOfRanges=1
Time=12:47:50

[HardwareConfiguration]
AbsorptionFactor=0
ActivateAbsorber=0
Alpha1=1.5406
Alpha2=1.54439
AlphaAverage=1.54184
AlphaRatio=0.5
Analyzer=1
Anode=Cu
AntiScatteringSlit=0.15
BeamOpticsFlags=5
Beta=1.39222
BetaRelativeIntensity=0
DeactivateAbsorber=0
DetectorSlit=1
DivergenceSlit=0.15
GoniometerControl=9999
GoniometerDiameter=435
GoniometerModel=520
GoniometerStage=0
Monochromator=0
NearSampleSlit=1
PrimarySollerSlit=1
SampleChanger=0
SecondSollerSlit=2
SynchronousAxis=0
ThinFilmAttachment=0.46
WaveUnit=A

[VarInfo]
Type=OSUSER
Flags=0
Value=mselab

[VarInfo]
Type=USER
Flags=0
Value=XRAYUSER

[VarInfo]
Type=SITE
Flags=0
Value=171

[VarInfo]
Type=CREATOR
Flags=0
Value=XRD Commander

[RangeHeader]
ActuallyUsedLambda=1.5406
AdditionalDetectorMask=0
DataRecordLength=4
DelayTime=0
DisplayPlaneNumber=0
EstimatedScanTime=0
ExtraParametersMask=0
GeneratorCurrent=9999
GeneratorVoltage=9999
Increment=0.05
Increment3=0
NumberOfCompletedData=1401
NumberOfCounts=1
NumberOfDetectors=1
NumberOfDrives=2
NumberOfEncoderDrives=0
NumberOfMeasuredData=1401
NumberOfVaryingParameters=0
RangeStartTime=1320870520
RotationSpeed=0
ScanMode=0
ScanType=Locked Coupled
SimulatedMeasConditions=0
SlitChangerIn=9999
SmootingWidth=0
Start=35
Steps=1401
SynchronousRotation=0
Time=1

[Drive]
DriveFlags=1
DriveName=Theta
DriveNumber=1
DriveOffset=0
OffsetIndex=0
OscillationAmplitude=0
OscillationSpeed=0
StartPosition=17.5

[Drive]
DriveFlags=1
DriveName=2Theta
DriveNumber=2
DriveOffset=0
OffsetIndex=0
OscillationAmplitude=0
OscillationSpeed=0
StartPosition=35

[Detector]
AmplifierGain=0
ConstantDeadTime=0
DetectorFlags=256
DetectorName=Detector 1
DetectorNumber=1
DetectorType=1
Discriminator1LowerLevel=0
Discriminator1WindowWidth=0
Discriminator2LowerLevel=0
Discriminator2WindowWidth=0
HighVoltage=0
PileUpTime=0
PulseShaping=9999
TTLDetectorName=

[Data]
     Angle, Det1Disc1,
        35,       106,
     35.05,        98,
      35.1,       125,
     35.15,       108,
      35.2,       118,
     35.25,       117,
      35.3,       118,
     35.35,       113,
      35.4,        92,
     35.45,       101,
      35.5,       121,
     35.55,       119,
      35.6,       128,
     35.65,       107,
      35.7,       119,
     35.75,       125,
      35.8,       110,
     35.85,       119,
      35.9,       105,
     35.95,       111,
        36,       118,
     36.05,       121,
      36.1,       117,
     36.15,       120,
      36.2,       116,
     36.25,       130,
      36.3,       116,
     36.35,       110,
      36.4,       107,
     36.45,       110,
      36.5,       124,
     36.55,       123,
      36.6,        99,
     36.65,       121,
      36.7,       134,
     36.75,        91,
      36.8,       110,
     36.85,       121,
      36.9,       103,
     36.95,       128,
        37,        98,
     37.05,        99,
      37.1,       116,
     37.15,       128,
      37.2,       118,
     37.25,       134,
      37.3,       119,
     37.35,       111,
      37.4,       111,
     37.45,       117,
      37.5,       121,
     37.55,       107,
      37.6,       122,
     37.65,       102,
      37.7,       108,
     37.75,       105,
      37.8,       126,
     37.85,       125,
      37.9,       106,
     37.95,       120,
        38,       126,
     38.05,       147,
      38.1,       160,
     38.15,       157,
      38.2,       195,
     38.25,       247,
      38.3,       367,
     38.35,       663,
      38.4,      1102,
     38.45,      1554,
      38.5,      1733,
     38.55,      1575,
      38.6,      1148,
     38.65,       794,
      38.7,       502,
     38.75,       358,
      38.8,       286,
     38.85,       194,
      38.9,       139,
     38.95,       139,
        39,       125,
     39.05,       132,
      39.1,       112,
     39.15,       118,
      39.2,       135,
     39.25,       132,
      39.3,       111,
     39.35,        96,
      39.4,       110,
     39.45,       113,
      39.5,       100,
     39.55,        97,
      39.6,        86,
     39.65,        89,
      39.7,       100,
     39.75,        98,
      39.8,        96,
     39.85,       103,
      39.9,       100,
     39.95,        83,
        40,        87,
     40.05,        96,
      40.1,        86,
     40.15,       109,
      40.2,        96,
     40.25,       101,
      40.3,       108,
     40.35,        93,
      40.4,        90,
     40.45,        74,
      40.5,        93,
     40.55,        88,
      40.6,        86,
     40.65,        66,
      40.7,       119,
     40.75,        73,
      40.8,        77,
     40.85,        92,
      40.9,        90,
     40.95,        86,
        41,        91,
     41.05,        78,
      41.1,        81,
     41.15,        77,
      41.2,        87,
     41.25,        80,
      41.3,        74,
     41.35,        87,
      41.4,        83,
     41.45,        88,
      41.5,        87,
     41.55,       101,
      41.6,        99,
     41.65,        79,
      41.7,        74,
     41.75,        78,
      41.8,       101,
     41.85,        90,
      41.9,        74,
     41.95,        78,
        42,        91,
     42.05,        95,
      42.1,        99,
     42.15,        78,
      42.2,       104,
     42.25,        76,
      42.3,        98,
     42.35,        82,
      42.4,       104,
     42.45,        96,
      42.5,        84,
     42.55,        75,
      42.6,        83,
     42.65,        90,
      42.7,        75,
     42.75,        80,
      42.8,        75,
     42.85,        75,
      42.9,        84,
     42.95,        90,
        43,        81,
     43.05,        94,
      43.1,       101,
     43.15,        82,
      43.2,        90,
     43.25,        92,
      43.3,       100,
     43.35,       117,
      43.4,        93,
     43.45,        85,
      43.5,        86,
     43.55,        88,
      43.6,        75,
     43.65,        75,
      43.7,        92,
     43.75,        92,
      43.8,        95,
     43.85,        78,
      43.9,        92,
     43.95,        95,
        44,        76,
     44.05,        93,
      44.1,        87,
     44.15,        97,
      44.2,        92,
     44.25,        98,
      44.3,       115,
     44.35,       120,
      44.4,       125,
     44.45,       142,
      44.5,       157,
     44.55,       187,
      44.6,       290,
     44.65,       502,
      44.7,       701,
     44.75,       772,
      44.8,       714,
     44.85,       617,
      44.9,       463,
     44.95,       363,
        45,       210,
     45.05,       173,
      45.1,       137,
     45.15,       106,
      45.2,       106,
     45.25,       118,
      45.3,       109,
     45.35,       108,
      45.4,        99,
     45.45,       105,
      45.5,       100,
     45.55,        82,
      45.6,       101,
     45.65,       106,
      45.7,        85,
     45.75,       100,
      45.8,       101,
     45.85,        83,
      45.9,        99,
     45.95,        93,
        46,       134,
     46.05,        91,
      46.1,       104,
     46.15,        75,
      46.2,       118,
     46.25,        82,
      46.3,        99,
     46.35,        81,
      46.4,        83,
     46.45,        80,
      46.5,        94,
     46.55,       104,
      46.6,        75,
     46.65,       101,
      46.7,        92,
     46.75,        85,
      46.8,        83,
     46.85,       109,
      46.9,        93,
     46.95,        84,
        47,        97,
     47.05,        83,
      47.1,        91,
     47.15,       115,
      47.2,        80,
     47.25,        84,
      47.3,        91,
     47.35,        98,
      47.4,        83,
     47.45,        92,
      47.5,        81,
     47.55,        83,
      47.6,        89,
     47.65,        87,
      47.7,        63,
     47.75,        84,
      47.8,        69,
     47.85,        94,
      47.9,        95,
     47.95,        86,
        48,        72,
     48.05,        83,
      48.1,        82,
     48.15,        71,
      48.2,        89,
     48.25,        94,
      48.3,        91,
     48.35,        87,
      48.4,        73,
     48.45,        87,
      48.5,        73,
     48.55,        86,
      48.6,        76,
     48.65,        63,
      48.7,        80,
     48.75,        88,
      48.8,        82,
     48.85,        70,
      48.9,       102,
     48.95,        60,
        49,       101,
     49.05,        93,
      49.1,        85,
     49.15,        79,
      49.2,        86,
     49.25,        78,
      49.3,        59,
     49.35,        73,
      49.4,        80,
     49.45,        94,
      49.5,        83,
     49.55,        86,
      49.6,        73,
     49.65,        73,
      49.7,        77,
     49.75,        90,
      49.8,        93,
     49.85,        97,
      49.9,        98,
     49.95,        77,
        50,        78,
     50.05,        94,
      50.1,        62,
     50.15,        78,
      50.2,        86,
     50.25,        83,
      50.3,        78,
     50.35,        84,
      50.4,        80,
     50.45,        80,
      50.5,        80,
     50.55,        73,
      50.6,        89,
     50.65,        86,
      50.7,        69,
     50.75,        86,
      50.8,        63,
     50.85,        87,
      50.9,        64,
     50.95,        80,
        51,        78,
     51.05,        78,
      51.1,        86,
     51.15,        77,
      51.2,        71,
     51.25,        76,
      51.3,        81,
     51.35,       100,
      51.4,        72,
     51.45,        93,
      51.5,        95,
     51.55,        78,
      51.6,        74,
     51.65,        74,
      51.7,        76,
     51.75,        73,
      51.8,        89,
     51.85,        83,
      51.9,        89,
     51.95,        84,
        52,        72,
     52.05,        84,
      52.1,        74,
     52.15,        56,
      52.2,        74,
     52.25,        94,
      52.3,        81,
     52.35,        79,
      52.4,        77,
     52.45,        84,
      52.5,        69,
     52.55,        68,
      52.6,        72,
     52.65,        84,
      52.7,        81,
     52.75,        80,
      52.8,        94,
     52.85,        90,
      52.9,        63,
     52.95,        82,
        53,        78,
     53.05,        68,
      53.1,        89,
     53.15,        79,
      53.2,        66,
     53.25,        70,
      53.3,        83,
     53.35,        80,
      53.4,        75,
     53.45,        81,
      53.5,        79,
     53.55,        77,
      53.6,       102,
     53.65,        92,
      53.7,        85,
     53.75,        80,
      53.8,        71,
     53.85,        85,
      53.9,        66,
     53.95,        87,
        54,        77,
     54.05,        77,
      54.1,        78,
     54.15,        80,
      54.2,        84,
     54.25,        84,
      54.3,        86,
     54.35,        78,
      54.4,        77,
     54.45,        78,
      54.5,        70,
     54.55,        80,
      54.6,        94,
     54.65,        86,
      54.7,        72,
     54.75,        75,
      54.8,        97,
     54.85,        79,
      54.9,        79,
     54.95,        80,
        55,        81,
     55.05,        71,
      55.1,        78,
     55.15,        59,
      55.2,        90,
     55.25,        59,
      55.3,        71,
     55.35,        78,
      55.4,        80,
     55.45,        70,
      55.5,        76,
     55.55,        82,
      55.6,        73,
     55.65,        78,
      55.7,        83,
     55.75,        81,
      55.8,        67,
     55.85,        84,
      55.9,        74,
     55.95,        81,
        56,        80,
     56.05,        82,
      56.1,        67,
     56.15,        83,
      56.2,        88,
     56.25,        84,
      56.3,       108,
     56.35,        76,
      56.4,        74,
     56.45,        79,
      56.5,        77,
     56.55,        81,
      56.6,        64,
     56.65,        75,
      56.7,        61,
     56.75,        69,
      56.8,        80,
     56.85,        78,
      56.9,        83,
     56.95,        58,
        57,        90,
     57.05,        76,
      57.1,        92,
     57.15,        72,
      57.2,        81,
     57.25,        67,
      57.3,        85,
     57.35,        71,
      57.4,        76,
     57.45,        72,
      57.5,        85,
     57.55,        82,
      57.6,        72,
     57.65,        89,
      57.7,        83,
     57.75,        79,
      57.8,        92,
     57.85,        84,
      57.9,        65,
     57.95,        89,
        58,        77,
     58.05,        81,
      58.1,        60,
     58.15,        78,
      58.2,        56,
     58.25,        79,
      58.3,        65,
     58.35,        78,
      58.4,        68,
     58.45,        66,
      58.5,        70,
     58.55,        87,
      58.6,        84,
     58.65,        85,
      58.7,        77,
     58.75,        56,
      58.8,        70,
     58.85,        81,
      58.9,        67,
     58.95,        83,
        59,        84,
     59.05,        72,
      59.1,        80,
     59.15,        92,
      59.2,       102,
     59.25,        84,
      59.3,        76,
     59.35,        73,
      59.4,        79,
     59.45,        74,
      59.5,        79,
     59.55,        88,
      59.6,        80,
     59.65,        71,
      59.7,        79,
     59.75,        68,
      59.8,        79,
     59.85,        84,
      59.9,        93,
     59.95,        66,
        60,        80,
     60.05,        77,
      60.1,        87,
     60.15,        79,
      60.2,        83,
     60.25,        98,
      60.3,        82,
     60.35,        68,
      60.4,        78,
     60.45,        86,
      60.5,        73,
     60.55,        84,
      60.6,        95,
     60.65,       102,
      60.7,       105,
     60.75,        90,
      60.8,        69,
     60.85,        67,
      60.9,        78,
     60.95,        92,
        61,        87,
     61.05,       100,
      61.1,        77,
     61.15,        93,
      61.2,        74,
     61.25,        96,
      61.3,        70,
     61.35,        97,
      61.4,        99,
     61.45,        84,
      61.5,        93,
     61.55,        99,
      61.6,        94,
     61.65,        90,
      61.7,        86,
     61.75,        80,
      61.8,        81,
     61.85,        84,
      61.9,        82,
     61.95,        88,
        62,        96,
     62.05,        82,
      62.1,        79,
     62.15,        86,
      62.2,        89,
     62.25,        65,
      62.3,        88,
     62.35,        90,
      62.4,        83,
     62.45,        82,
      62.5,        77,
     62.55,        98,
      62.6,        94,
     62.65,        85,
      62.7,        95,
     62.75,        71,
      62.8,        61,
     62.85,        79,
      62.9,        84,
     62.95,        92,
        63,       101,
     63.05,        81,
      63.1,        87,
     63.15,        90,
      63.2,       101,
     63.25,        76,
      63.3,        94,
     63.35,        82,
      63.4,        72,
     63.45,        77,
      63.5,        73,
     63.55,        87,
      63.6,        85,
     63.65,        77,
      63.7,        78,
     63.75,        88,
      63.8,        88,
     63.85,        87,
      63.9,        83,
     63.95,        90,
        64,        73,
     64.05,        98,
      64.1,        87,
     64.15,        95,
      64.2,        83,
     64.25,        78,
      64.3,        80,
     64.35,        86,
      64.4,        92,
     64.45,        77,
      64.5,       108,
     64.55,        78,
      64.6,        98,
     64.65,        85,
      64.7,        90,
     64.75,       111,
      64.8,       125,
     64.85,       114,
      64.9,       128,
     64.95,       153,
        65,       219,
     65.05,       277,
      65.1,       381,
     65.15,       363,
      65.2,       328,
     65.25,       324,
      65.3,       291,
     65.35,       231,
      65.4,       155,
     65.45,       136,
      65.5,       136,
     65.55,       104,
      65.6,       123,
     65.65,       106,
      65.7,        85,
     65.75,        81,
      65.8,        92,
     65.85,        90,
      65.9,       101,
     65.95,        96,
        66,        96,
     66.05,        91,
      66.1,        94,
     66.15,        78,
      66.2,       107,
     66.25,        93,
      66.3,        99,
     66.35,        78,
      66.4,       101,
     66.45,       100,
      66.5,        88,
     66.55,        88,
      66.6,       101,
     66.65,        97,
      66.7,        98,
     66.75,        99,
      66.8,       100,
     66.85,        93,
      66.9,       100,
     66.95,        86,
        67,        74,
     67.05,        93,
      67.1,       106,
     67.15,        95,
      67.2,       111,
     67.25,        97,
      67.3,        84,
     67.35,        93,
      67.4,        87,
     67.45,        98,
      67.5,        90,
     67.55,        88,
      67.6,       102,
     67.65,        81,
      67.7,        78,
     67.75,       100,
      67.8,        81,
     67.85,        77,
      67.9,       102,
     67.95,        81,
        68,        89,
     68.05,        82,
      68.1,        88,
     68.15,        77,
      68.2,        81,
     68.25,        79,
      68.3,        61,
     68.35,        94,
      68.4,        69,
     68.45,        75,
      68.5,        89,
     68.55,        78,
      68.6,        98,
     68.65,        92,
      68.7,        91,
     68.75,        79,
      68.8,        73,
     68.85,        96,
      68.9,        83,
     68.95,        75,
        69,        89,
     69.05,        71,
      69.1,        71,
     69.15,        64,
      69.2,        78,
     69.25,        63,
      69.3,       106,
     69.35,        75,
      69.4,        70,
     69.45,        85,
      69.5,        82,
     69.55,        71,
      69.6,        94,
     69.65,        85,
      69.7,        66,
     69.75,        80,
      69.8,        77,
     69.85,        83,
      69.9,        86,
     69.95,        68,
        70,        67,
     70.05,        77,
      70.1,        69,
     70.15,        62,
      70.2,        85,
     70.25,        94,
      70.3,        80,
     70.35,       101,
      70.4,        83,
     70.45,        99,
      70.5,        62,
     70.55,        81,
      70.6,        85,
     70.65,        82,
      70.7,        89,
     70.75,        78,
      70.8,        85,
     70.85,        84,
      70.9,        72,
     70.95,        74,
        71,        76,
     71.05,        74,
      71.1,        78,
     71.15,        65,
      71.2,        62,
     71.25,        76,
      71.3,        81,
     71.35,        86,
      71.4,        73,
     71.45,        94,
      71.5,        82,
     71.55,        73,
      71.6,        74,
     71.65,        78,
      71.7,        84,
     71.75,        86,
      71.8,        89,
     71.85,        63,
      71.9,        87,
     71.95,        64,
        72,        77,
     72.05,        65,
      72.1,        84,
     72.15,        83,
      72.2,        96,
     72.25,        77,
      72.3,        90,
     72.35,        76,
      72.4,        66,
     72.45,        87,
      72.5,        79,
     72.55,        73,
      72.6,        72,
     72.65,        82,
      72.7,        78,
     72.75,        79,
      72.8,        78,
     72.85,        79,
      72.9,        56,
     72.95,        75,
        73,        65,
     73.05,        77,
      73.1,        81,
     73.15,        74,
      73.2,        72,
     73.25,        69,
      73.3,        84,
     73.35,        93,
      73.4,        79,
     73.45,        71,
      73.5,        77,
     73.55,        75,
      73.6,        85,
     73.65,        71,
      73.7,        80,
     73.75,        68,
      73.8,        75,
     73.85,        95,
      73.9,        88,
     73.95,        90,
        74,        73,
     74.05,        75,
      74.1,        80,
     74.15,        66,
      74.2,        69,
     74.25,        80,
      74.3,        85,
     74.35,        82,
      74.4,        92,
     74.45,        73,
      74.5,        89,
     74.55,        74,
      74.6,        91,
     74.65,        94,
      74.7,        76,
     74.75,        80,
      74.8,        75,
     74.85,        69,
      74.9,        93,
     74.95,        77,
        75,        75,
     75.05,        81,
      75.1,        71,
     75.15,        66,
      75.2,        70,
     75.25,        88,
      75.3,        82,
     75.35,        66,
      75.4,        82,
     75.45,        75,
      75.5,        97,
     75.55,        81,
      75.6,        80,
     75.65,        96,
      75.7,        76,
     75.75,        75,
      75.8,        77,
     75.85,        74,
      75.9,        71,
     75.95,        89,
        76,        81,
     76.05,        92,
      76.1,        83,
     76.15,        78,
      76.2,        90,
     76.25,        62,
      76.3,        81,
     76.35,        72,
      76.4,        83,
     76.45,        77,
      76.5,        69,
     76.55,        90,
      76.6,        77,
     76.65,        86,
      76.7,        86,
     76.75,        87,
      76.8,        82,
     76.85,        74,
      76.9,        77,
     76.95,        81,
        77,        90,
     77.05,        85,
      77.1,        89,
     77.15,        89,
      77.2,        87,
     77.25,        75,
      77.3,        88,
     77.35,        74,
      77.4,        79,
     77.45,        84,
      77.5,        91,
     77.55,        74,
      77.6,        82,
     77.65,        58,
      77.7,        80,
     77.75,        75,
      77.8,       119,
     77.85,        88,
      77.9,        94,
     77.95,       105,
        78,       120,
     78.05,       110,
      78.1,       165,
     78.15,       210,
      78.2,       293,
     78.25,       329,
      78.3,       335,
     78.35,       290,
      78.4,       266,
     78.45,       262,
      78.5,       235,
     78.55,       211,
      78.6,       145,
     78.65,       134,
      78.7,       101,
     78.75,       105,
      78.8,        80,
     78.85,        83,
      78.9,        89,
     78.95,        92,
        79,        74,
     79.05,        89,
      79.1,        67,
     79.15,        74,
      79.2,        76,
     79.25,        83,
      79.3,        75,
     79.35,        69,
      79.4,        74,
     79.45,        69,
      79.5,        68,
     79.55,        80,
      79.6,        84,
     79.65,        74,
      79.7,        78,
     79.75,        74,
      79.8,        75,
     79.85,        71,
      79.9,        57,
     79.95,        66,
        80,        81,
     80.05,        64,
      80.1,        77,
     80.15,        75,
      80.2,        93,
     80.25,        66,
      80.3,        80,
     80.35,        61,
      80.4,        68,
     80.45,        70,
      80.5,        78,
     80.55,        75,
      80.6,        61,
     80.65,        73,
      80.7,        68,
     80.75,        71,
      80.8,        93,
     80.85,        64,
      80.9,        67,
     80.95,        78,
        81,        80,
     81.05,        66,
      81.1,        64,
     81.15,        68,
      81.2,        65,
     81.25,        65,
      81.3,        72,
     81.35,        69,
      81.4,        75,
     81.45,        74,
      81.5,        64,
     81.55,        76,
      81.6,        66,
     81.65,        92,
      81.7,        66,
     81.75,        55,
      81.8,        68,
     81.85,        81,
      81.9,        76,
     81.95,        64,
        82,        64,
     82.05,        79,
      82.1,        76,
     82.15,        61,
      82.2,        83,
     82.25,        80,
      82.3,        75,
     82.35,       116,
      82.4,       123,
     82.45,       151,
      82.5,       144,
     82.55,       120,
      82.6,       104,
     82.65,        98,
      82.7,       102,
     82.75,        91,
      82.8,        81,
     82.85,        81,
      82.9,        67,
     82.95,        76,
        83,        51,
     83.05,        67,
      83.1,        76,
     83.15,        63,
      83.2,        67,
     83.25,        73,
      83.3,        63,
     83.35,        41,
      83.4,        61,
     83.45,        55,
      83.5,        67,
     83.55,        57,
      83.6,        70,
     83.65,        58,
      83.7,        60,
     83.75,        74,
      83.8,        53,
     83.85,        64,
      83.9,        62,
     83.95,        55,
        84,        50,
     84.05,        55,
      84.1,        62,
     84.15,        52,
      84.2,        52,
     84.25,        72,
      84.3,        63,
     84.35,        38,
      84.4,        50,
     84.45,        49,
      84.5,        57,
     84.55,        63,
      84.6,        51,
     84.65,        60,
      84.7,        57,
     84.75,        54,
      84.8,        60,
     84.85,        47,
      84.9,        56,
     84.95,        60,
        85,        59,
     85.05,        45,
      85.1,        53,
     85.15,        47,
      85.2,        54,
     85.25,        49,
      85.3,        44,
     85.35,        44,
      85.4,        52,
     85.45,        46,
      85.5,        60,
     85.55,        50,
      85.6,        60,
     85.65,        56,
      85.7,        46,
     85.75,        53,
      85.8,        57,
     85.85,        46,
      85.9,        44,
     85.95,        57,
        86,        54,
     86.05,        53,
      86.1,        38,
     86.15,        55,
      86.2,        42,
     86.25,        54,
      86.3,        35,
     86.35,        54,
      86.4,        41,
     86.45,        46,
      86.5,        50,
     86.55,        53,
      86.6,        51,
     86.65,        56,
      86.7,        58,
     86.75,        53,
      86.8,        44,
     86.85,        44,
      86.9,        45,
     86.95,        56,
        87,        44,
     87.05,        46,
      87.1,        48,
     87.15,        36,
      87.2,        38,
     87.25,        48,
      87.3,        40,
     87.35,        41,
      87.4,        53,
     87.45,        39,
      87.5,        39,
     87.55,        37,
      87.6,        42,
     87.65,        47,
      87.7,        59,
     87.75,        36,
      87.8,        31,
     87.85,        37,
      87.9,        55,
     87.95,        45,
        88,        50,
     88.05,        47,
      88.1,        45,
     88.15,        35,
      88.2,        56,
     88.25,        39,
      88.3,        50,
     88.35,        35,
      88.4,        47,
     88.45,        43,
      88.5,        40,
     88.55,        43,
      88.6,        42,
     88.65,        53,
      88.7,        46,
     88.75,        45,
      88.8,        26,
     88.85,        41,
      88.9,        49,
     88.95,        50,
        89,        38,
     89.05,        45,
      89.1,        46,
     89.15,        35,
      89.2,        47,
     89.25,        48,
      89.3,        38,
     89.35,        51,
      89.4,        38,
     89.45,        39,
      89.5,        42,
     89.55,        38,
      89.6,        39,
     89.65,        38,
      89.7,        39,
     89.75,        42,
      89.8,        46,
     89.85,        38,
      89.9,        32,
     89.95,        41,
        90,        43,
     90.05,        46,
      90.1,        62,
     90.15,        42,
      90.2,        44,
     90.25,        41,
      90.3,        48,
     90.35,        38,
      90.4,        41,
     90.45,        47,
      90.5,        38,
     90.55,        40,
      90.6,        34,
     90.65,        41,
      90.7,        39,
     90.75,        48,
      90.8,        53,
     90.85,        45,
      90.9,        38,
     90.95,        38,
        91,        40,
     91.05,        47,
      91.1,        41,
     91.15,        35,
      91.2,        43,
     91.25,        45,
      91.3,        54,
     91.35,        41,
      91.4,        40,
     91.45,        46,
      91.5,        40,
     91.55,        30,
      91.6,        39,
     91.65,        39,
      91.7,        41,
     91.75,        33,
      91.8,        40,
     91.85,        40,
      91.9,        33,
     91.95,        36,
        92,        39,
     92.05,        35,
      92.1,        38,
     92.15,        56,
      92.2,        42,
     92.25,        46,
      92.3,        27,
     92.35,        48,
      92.4,        36,
     92.45,        51,
      92.5,        41,
     92.55,        28,
      92.6,        46,
     92.65,        31,
      92.7,        39,
     92.75,        43,
      92.8,        33,
     92.85,        48,
      92.9,        43,
     92.95,        38,
        93,        37,
     93.05,        38,
      93.1,        46,
     93.15,        41,
      93.2,        43,
     93.25,        36,
      93.3,        42,
     93.35,        51,
      93.4,        39,
     93.45,        46,
      93.5,        43,
     93.55,        45,
      93.6,        42,
     93.65,        40,
      93.7,        45,
     93.75,        45,
      93.8,        44,
     93.85,        35,
      93.9,        44,
     93.95,        46,
        94,        31,
     94.05,        43,
      94.1,        45,
     94.15,        40,
      94.2,        41,
     94.25,        39,
      94.3,        42,
     94.35,        48,
      94.4,        43,
     94.45,        40,
      94.5,        31,
     94.55,        38,
      94.6,        44,
     94.65,        47,
      94.7,        42,
     94.75,        46,
      94.8,        30,
     94.85,        38,
      94.9,        44,
     94.95,        45,
        95,        43,
     95.05,        48,
      95.1,        43,
     95.15,        38,
      95.2,        47,
     95.25,        46,
      95.3,        38,
     95.35,        49,
      95.4,        41,
     95.45,        51,
      95.5,        39,
     95.55,        47,
      95.6,        37,
     95.65,        46,
      95.7,        49,
     95.75,        43,
      95.8,        36,
     95.85,        40,
      95.9,        44,
     95.95,        34,
        96,        50,
     96.05,        42,
      96.1,        34,
     96.15,        39,
      96.2,        45,
     96.25,        46,
      96.3,        43,
     96.35,        45,
      96.4,        36,
     96.45,        62,
      96.5,        50,
     96.55,        35,
      96.6,        34,
     96.65,        43,
      96.7,        33,
     96.75,        43,
      96.8,        36,
     96.85,        43,
      96.9,        38,
     96.95,        37,
        97,        38,
     97.05,        35,
      97.1,        38,
     97.15,        44,
      97.2,        30,
     97.25,        35,
      97.3,        45,
     97.35,        37,
      97.4,        46,
     97.45,        45,
      97.5,        46,
     97.55,        56,
      97.6,        47,
     97.65,        53,
      97.7,        29,
     97.75,        50,
      97.8,        53,
     97.85,        51,
      97.9,        36,
     97.95,        40,
        98,        36,
     98.05,        35,
      98.1,        41,
     98.15,        33,
      98.2,        42,
     98.25,        36,
      98.3,        44,
     98.35,        48,
      98.4,        31,
     98.45,        51,
      98.5,        41,
     98.55,        36,
      98.6,        53,
     98.65,        40,
      98.7,        46,
     98.75,        58,
      98.8,        46,
     98.85,        32,
      98.9,        51,
     98.95,        48,
        99,        54,
     99.05,        67,
      99.1,        60,
     99.15,        66,
      99.2,        64,
     99.25,        59,
      99.3,        55,
     99.35,        61,
      99.4,        62,
     99.45,        61,
      99.5,        55,
     99.55,        45,
      99.6,        45,
     99.65,        44,
      99.7,        38,
     99.75,        37,
      99.8,        33,
     99.85,        43,
      99.9,        50,
     99.95,        43,
       100,        47,
    100.05,        47,
     100.1,        38,
    100.15,        53,
     100.2,        43,
    100.25,        50,
     100.3,        50,
    100.35,        40,
     100.4,        47,
    100.45,        41,
     100.5,        43,
    100.55,        40,
     100.6,        31,
    100.65,        40,
     100.7,        48,
    100.75,        41,
     100.8,        47,
    100.85,        39,
     100.9,        41,
    100.95,        34,
       101,        35,
    101.05,        33,
     101.1,        39,
    101.15,        43,
     101.2,        48,
    101.25,        38,
     101.3,        47,
    101.35,        44,
     101.4,        51,
    101.45,        35,
     101.5,        47,
    101.55,        35,
     101.6,        40,
    101.65,        40,
     101.7,        39,
    101.75,        30,
     101.8,        42,
    101.85,        46,
     101.9,        50,
    101.95,        36,
       102,        49,
    102.05,        40,
     102.1,        31,
    102.15,        42,
     102.2,        45,
    102.25,        54,
     102.3,        35,
    102.35,        35,
     102.4,        27,
    102.45,        52,
     102.5,        45,
    102.55,        50,
     102.6,        31,
    102.65,        42,
     102.7,        31,
    102.75,        32,
     102.8,        43,
    102.85,        29,
     102.9,        39,
    102.95,        36,
       103,        38,
    103.05,        42,
     103.1,        41,
    103.15,        52,
     103.2,        45,
    103.25,        45,
     103.3,        42,
    103.35,        38,
     103.4,        41,
    103.45,        35,
     103.5,        48,
    103.55,        45,
     103.6,        45,
    103.65,        41,
     103.7,        41,
    103.75,        41,
     103.8,        46,
    103.85,        32,
     103.9,        45,
    103.95,        45,
       104,        47,
    104.05,        50,
     104.1,        27,
    104.15,        42,
     104.2,        41,
    104.25,        48,
     104.3,        40,
    104.35,        42,
     104.4,        38,
    104.45,        44,
     104.5,        56,
    104.55,        33,
     104.6,        50,
    104.65,        48,
     104.7,        42,
    104.75,        39,
     104.8,        42,
    104.85,        47,
     104.9,        28,
    104.95,        46,
       105,        48,
