;RAW4.00
[RawHeader]
Date=09/05/2019
EstimatedTotalTime=0
FurtherDQLReading=0
HardwareIndicator=65519
MeasuredTotalTime=0
MeasurementFlag=1
NumberOfMeasuredRanges=1
NumberOfRanges=1
Time=13:49:54

[HardwareConfiguration]
AbsorptionFactor=0
ActivateAbsorber=0
Alpha1=1.5406
Alpha2=1.54439
AlphaAverage=1.54184
AlphaRatio=0.5
Analyzer=1
Anode=Cu
AntiScatteringSlit=0.15
BeamOpticsFlags=5
Beta=1.39222
BetaRelativeIntensity=0
DeactivateAbsorber=0
DetectorSlit=1
DivergenceSlit=0.15
GoniometerControl=9999
GoniometerDiameter=435
GoniometerModel=520
GoniometerStage=0
Monochromator=0
NearSampleSlit=1
PrimarySollerSlit=1
SampleChanger=0
SecondSollerSlit=2
SynchronousAxis=0
ThinFilmAttachment=0.46
WaveUnit=A

[VarInfo]
Type=OSUSER
Flags=0
Value=mselab

[VarInfo]
Type=USER
Flags=0
Value=XRAYUSER

[VarInfo]
Type=SITE
Flags=0
Value=171

[VarInfo]
Type=CREATOR
Flags=0
Value=XRD Commander

[RangeHeader]
ActuallyUsedLambda=1.5406
AdditionalDetectorMask=0
DataRecordLength=4
DelayTime=0
DisplayPlaneNumber=0
EstimatedScanTime=0
ExtraParametersMask=0
GeneratorCurrent=9999
GeneratorVoltage=9999
Increment=0.05
Increment3=0
NumberOfCompletedData=1301
NumberOfCounts=1
NumberOfDetectors=1
NumberOfDrives=2
NumberOfEncoderDrives=0
NumberOfMeasuredData=1301
NumberOfVaryingParameters=0
RangeStartTime=1320870550
RotationSpeed=0
ScanMode=0
ScanType=Locked Coupled
SimulatedMeasConditions=0
SlitChangerIn=9999
SmootingWidth=0
Start=25
Steps=1301
SynchronousRotation=0
Time=1

[Drive]
DriveFlags=1
DriveName=Theta
DriveNumber=1
DriveOffset=0
OffsetIndex=0
OscillationAmplitude=0
OscillationSpeed=0
StartPosition=12.5

[Drive]
DriveFlags=1
DriveName=2Theta
DriveNumber=2
DriveOffset=0
OffsetIndex=0
OscillationAmplitude=0
OscillationSpeed=0
StartPosition=25

[Detector]
AmplifierGain=0
ConstantDeadTime=0
DetectorFlags=256
DetectorName=Detector 1
DetectorNumber=1
DetectorType=1
Discriminator1LowerLevel=0
Discriminator1WindowWidth=0
Discriminator2LowerLevel=0
Discriminator2WindowWidth=0
HighVoltage=0
PileUpTime=0
PulseShaping=9999
TTLDetectorName=

[Data]
     Angle, Det1Disc1,
        25,       168,
     25.05,       171,
      25.1,       188,
     25.15,       165,
      25.2,       166,
     25.25,       174,
      25.3,       172,
     25.35,       187,
      25.4,       173,
     25.45,       194,
      25.5,       163,
     25.55,       169,
      25.6,       181,
     25.65,       157,
      25.7,       190,
     25.75,       169,
      25.8,       181,
     25.85,       181,
      25.9,       169,
     25.95,       191,
        26,       196,
     26.05,       196,
      26.1,       172,
     26.15,       187,
      26.2,       171,
     26.25,       175,
      26.3,       173,
     26.35,       216,
      26.4,       189,
     26.45,       210,
      26.5,       176,
     26.55,       174,
      26.6,       197,
     26.65,       200,
      26.7,       180,
     26.75,       200,
      26.8,       182,
     26.85,       190,
      26.9,       200,
     26.95,       203,
        27,       199,
     27.05,       183,
      27.1,       209,
     27.15,       203,
      27.2,       216,
     27.25,       210,
      27.3,       210,
     27.35,       245,
      27.4,       186,
     27.45,       219,
      27.5,       240,
     27.55,       254,
      27.6,       265,
     27.65,       261,
      27.7,       241,
     27.75,       280,
      27.8,       259,
     27.85,       257,
      27.9,       272,
     27.95,       291,
        28,       304,
     28.05,       344,
      28.1,       334,
     28.15,       432,
      28.2,       457,
     28.25,       525,
      28.3,       665,
     28.35,       863,
      28.4,      1199,
     28.45,      1441,
      28.5,      1611,
     28.55,      1646,
      28.6,      1429,
     28.65,      1253,
      28.7,       971,
     28.75,       767,
      28.8,       547,
     28.85,       462,
      28.9,       408,
     28.95,       330,
        29,       326,
     29.05,       280,
      29.1,       296,
     29.15,       246,
      29.2,       255,
     29.25,       246,
      29.3,       195,
     29.35,       205,
      29.4,       184,
     29.45,       182,
      29.5,       190,
     29.55,       186,
      29.6,       164,
     29.65,       163,
      29.7,       176,
     29.75,       166,
      29.8,       143,
     29.85,       159,
      29.9,       147,
     29.95,       150,
        30,       146,
     30.05,       150,
      30.1,       135,
     30.15,       145,
      30.2,       131,
     30.25,       116,
      30.3,       120,
     30.35,       142,
      30.4,       144,
     30.45,       125,
      30.5,       120,
     30.55,       113,
      30.6,       125,
     30.65,       136,
      30.7,       117,
     30.75,       137,
      30.8,       103,
     30.85,       119,
      30.9,       131,
     30.95,       129,
        31,       109,
     31.05,       127,
      31.1,       108,
     31.15,       121,
      31.2,       121,
     31.25,       114,
      31.3,       111,
     31.35,       129,
      31.4,       105,
     31.45,       109,
      31.5,       123,
     31.55,       109,
      31.6,       108,
     31.65,        96,
      31.7,       115,
     31.75,        96,
      31.8,       111,
     31.85,       116,
      31.9,       108,
     31.95,       109,
        32,        98,
     32.05,        96,
      32.1,       103,
     32.15,       102,
      32.2,       120,
     32.25,        99,
      32.3,       111,
     32.35,       102,
      32.4,       109,
     32.45,       102,
      32.5,        88,
     32.55,        95,
      32.6,        95,
     32.65,        96,
      32.7,        99,
     32.75,       106,
      32.8,        98,
     32.85,       107,
      32.9,        92,
     32.95,       103,
        33,        91,
     33.05,        91,
      33.1,        83,
     33.15,       105,
      33.2,        89,
     33.25,        96,
      33.3,        96,
     33.35,        81,
      33.4,        80,
     33.45,        99,
      33.5,        94,
     33.55,        84,
      33.6,        97,
     33.65,        86,
      33.7,       111,
     33.75,        78,
      33.8,        88,
     33.85,        90,
      33.9,        82,
     33.95,       103,
        34,        84,
     34.05,        80,
      34.1,        89,
     34.15,        81,
      34.2,        91,
     34.25,       110,
      34.3,        95,
     34.35,        79,
      34.4,        79,
     34.45,        71,
      34.5,        73,
     34.55,        85,
      34.6,        76,
     34.65,        75,
      34.7,        80,
     34.75,        85,
      34.8,       108,
     34.85,        93,
      34.9,        94,
     34.95,        83,
        35,        78,
     35.05,        79,
      35.1,        87,
     35.15,        78,
      35.2,        66,
     35.25,        97,
      35.3,        74,
     35.35,        86,
      35.4,        81,
     35.45,        76,
      35.5,        93,
     35.55,        82,
      35.6,        71,
     35.65,        83,
      35.7,        73,
     35.75,        91,
      35.8,        80,
     35.85,        96,
      35.9,        78,
     35.95,        85,
        36,        64,
     36.05,        74,
      36.1,        62,
     36.15,        74,
      36.2,        66,
     36.25,        77,
      36.3,        77,
     36.35,        71,
      36.4,        55,
     36.45,        70,
      36.5,        70,
     36.55,        72,
      36.6,        80,
     36.65,        91,
      36.7,        84,
     36.75,        76,
      36.8,        71,
     36.85,        65,
      36.9,        81,
     36.95,        75,
        37,        65,
     37.05,        75,
      37.1,        69,
     37.15,        56,
      37.2,        73,
     37.25,        79,
      37.3,        67,
     37.35,        62,
      37.4,        59,
     37.45,        70,
      37.5,        76,
     37.55,        73,
      37.6,        54,
     37.65,        63,
      37.7,        63,
     37.75,        79,
      37.8,        69,
     37.85,        78,
      37.9,        75,
     37.95,        58,
        38,        65,
     38.05,        59,
      38.1,        69,
     38.15,        66,
      38.2,        72,
     38.25,        76,
      38.3,        78,
     38.35,        78,
      38.4,        54,
     38.45,        65,
      38.5,        70,
     38.55,        73,
      38.6,        65,
     38.65,        65,
      38.7,        69,
     38.75,        61,
      38.8,        60,
     38.85,        72,
      38.9,        55,
     38.95,        64,
        39,        73,
     39.05,        47,
      39.1,        63,
     39.15,        68,
      39.2,        51,
     39.25,        61,
      39.3,        59,
     39.35,        59,
      39.4,        60,
     39.45,        64,
      39.5,        56,
     39.55,        65,
      39.6,        50,
     39.65,        62,
      39.7,        76,
     39.75,        67,
      39.8,        64,
     39.85,        72,
      39.9,        63,
     39.95,        66,
        40,        73,
     40.05,        62,
      40.1,        61,
     40.15,        57,
      40.2,        55,
     40.25,        45,
      40.3,        49,
     40.35,        60,
      40.4,        76,
     40.45,        55,
      40.5,        72,
     40.55,        57,
      40.6,        70,
     40.65,        59,
      40.7,        65,
     40.75,        58,
      40.8,        65,
     40.85,        58,
      40.9,        71,
     40.95,        50,
        41,        52,
     41.05,        63,
      41.1,        55,
     41.15,        63,
      41.2,        39,
     41.25,        73,
      41.3,        50,
     41.35,        64,
      41.4,        61,
     41.45,        55,
      41.5,        52,
     41.55,        64,
      41.6,        71,
     41.65,        61,
      41.7,        62,
     41.75,        68,
      41.8,        67,
     41.85,        69,
      41.9,        47,
     41.95,        59,
        42,        57,
     42.05,        63,
      42.1,        63,
     42.15,        65,
      42.2,        72,
     42.25,        59,
      42.3,        63,
     42.35,        58,
      42.4,        58,
     42.45,        69,
      42.5,        72,
     42.55,        63,
      42.6,        55,
     42.65,        63,
      42.7,        45,
     42.75,        66,
      42.8,        58,
     42.85,        59,
      42.9,        62,
     42.95,        70,
        43,        83,
     43.05,        64,
      43.1,        60,
     43.15,        66,
      43.2,        85,
     43.25,        70,
      43.3,        71,
     43.35,        78,
      43.4,        65,
     43.45,        70,
      43.5,        70,
     43.55,        57,
      43.6,        73,
     43.65,        67,
      43.7,        70,
     43.75,        66,
      43.8,        72,
     43.85,        77,
      43.9,        61,
     43.95,        62,
        44,        78,
     44.05,        66,
      44.1,        82,
     44.15,        67,
      44.2,        80,
     44.25,        66,
      44.3,        65,
     44.35,        72,
      44.4,        77,
     44.45,        60,
      44.5,        90,
     44.55,        71,
      44.6,        81,
     44.65,        59,
      44.7,        65,
     44.75,        68,
      44.8,        62,
     44.85,        77,
      44.9,        57,
     44.95,        78,
        45,        81,
     45.05,        65,
      45.1,        74,
     45.15,        75,
      45.2,        75,
     45.25,        82,
      45.3,        64,
     45.35,        74,
      45.4,        93,
     45.45,        91,
      45.5,        75,
     45.55,        81,
      45.6,        70,
     45.65,        88,
      45.7,        92,
     45.75,        84,
      45.8,        83,
     45.85,        85,
      45.9,        80,
     45.95,        87,
        46,        79,
     46.05,        84,
      46.1,        78,
     46.15,       116,
      46.2,        94,
     46.25,       112,
      46.3,        88,
     46.35,       113,
      46.4,       102,
     46.45,       131,
      46.5,       129,
     46.55,       114,
      46.6,       119,
     46.65,       138,
      46.7,       124,
     46.75,       146,
      46.8,       130,
     46.85,       151,
      46.9,       160,
     46.95,       177,
        47,       191,
     47.05,       203,
      47.1,       257,
     47.15,       304,
      47.2,       371,
     47.25,       441,
      47.3,       593,
     47.35,       684,
      47.4,       788,
     47.45,       813,
      47.5,       780,
     47.55,       715,
      47.6,       587,
     47.65,       518,
      47.7,       394,
     47.75,       312,
      47.8,       297,
     47.85,       250,
      47.9,       215,
     47.95,       201,
        48,       180,
     48.05,       195,
      48.1,       153,
     48.15,       148,
      48.2,       155,
     48.25,       143,
      48.3,       119,
     48.35,       114,
      48.4,       123,
     48.45,       112,
      48.5,       108,
     48.55,       106,
      48.6,       113,
     48.65,       113,
      48.7,       102,
     48.75,       110,
      48.8,       103,
     48.85,        98,
      48.9,       105,
     48.95,        97,
        49,        98,
     49.05,        90,
      49.1,        98,
     49.15,        87,
      49.2,       125,
     49.25,        85,
      49.3,        71,
     49.35,        86,
      49.4,       101,
     49.45,        90,
      49.5,        86,
     49.55,        87,
      49.6,        86,
     49.65,        82,
      49.7,        73,
     49.75,       108,
      49.8,        94,
     49.85,        94,
      49.9,        69,
     49.95,        87,
        50,        87,
     50.05,        90,
      50.1,        83,
     50.15,        83,
      50.2,        97,
     50.25,        87,
      50.3,        85,
     50.35,        84,
      50.4,        81,
     50.45,        91,
      50.5,        96,
     50.55,        94,
      50.6,        79,
     50.65,        89,
      50.7,        99,
     50.75,        86,
      50.8,        91,
     50.85,        95,
      50.9,        73,
     50.95,        74,
        51,        78,
     51.05,        82,
      51.1,        82,
     51.15,        74,
      51.2,        74,
     51.25,        82,
      51.3,        79,
     51.35,        79,
      51.4,        82,
     51.45,        87,
      51.5,        68,
     51.55,        98,
      51.6,        88,
     51.65,        90,
      51.7,        75,
     51.75,        99,
      51.8,        79,
     51.85,        89,
      51.9,        80,
     51.95,        92,
        52,        96,
     52.05,        99,
      52.1,        93,
     52.15,        78,
      52.2,        94,
     52.25,       100,
      52.3,        84,
     52.35,        76,
      52.4,        90,
     52.45,        74,
      52.5,        84,
     52.55,        89,
      52.6,        76,
     52.65,        72,
      52.7,        88,
     52.75,        87,
      52.8,        79,
     52.85,        78,
      52.9,        74,
     52.95,        81,
        53,        85,
     53.05,        81,
      53.1,        76,
     53.15,        77,
      53.2,        99,
     53.25,        84,
      53.3,        97,
     53.35,        90,
      53.4,        83,
     53.45,        76,
      53.5,        82,
     53.55,        86,
      53.6,        78,
     53.65,        74,
      53.7,        93,
     53.75,        73,
      53.8,        85,
     53.85,        94,
      53.9,        83,
     53.95,        64,
        54,        70,
     54.05,        97,
      54.1,       105,
     54.15,        71,
      54.2,        90,
     54.25,        85,
      54.3,        92,
     54.35,        73,
      54.4,        73,
     54.45,        79,
      54.5,        68,
     54.55,        73,
      54.6,        70,
     54.65,        78,
      54.7,        90,
     54.75,       107,
      54.8,        67,
     54.85,        83,
      54.9,        93,
     54.95,       100,
        55,        95,
     55.05,        89,
      55.1,       108,
     55.15,        94,
      55.2,       112,
     55.25,        94,
      55.3,       105,
     55.35,       105,
      55.4,       113,
     55.45,       114,
      55.5,       111,
     55.55,       109,
      55.6,       121,
     55.65,       129,
      55.7,       132,
     55.75,       151,
      55.8,       151,
     55.85,       159,
      55.9,       172,
     55.95,       201,
        56,       241,
     56.05,       272,
      56.1,       350,
     56.15,       372,
      56.2,       429,
     56.25,       464,
      56.3,       477,
     56.35,       418,
      56.4,       389,
     56.45,       340,
      56.5,       313,
     56.55,       224,
      56.6,       205,
     56.65,       181,
      56.7,       157,
     56.75,       148,
      56.8,       118,
     56.85,       135,
      56.9,       130,
     56.95,        70,
        57,       107,
     57.05,       108,
      57.1,        82,
     57.15,        77,
      57.2,        84,
     57.25,        80,
      57.3,        93,
     57.35,        75,
      57.4,        79,
     57.45,        80,
      57.5,        78,
     57.55,        64,
      57.6,        74,
     57.65,        69,
      57.7,        82,
     57.75,        73,
      57.8,        55,
     57.85,        70,
      57.9,        69,
     57.95,        56,
        58,        55,
     58.05,        69,
      58.1,        62,
     58.15,        64,
      58.2,        78,
     58.25,        66,
      58.3,        63,
     58.35,        53,
      58.4,        64,
     58.45,        72,
      58.5,        66,
     58.55,        68,
      58.6,        73,
     58.65,        60,
      58.7,        55,
     58.75,        57,
      58.8,        69,
     58.85,        58,
      58.9,        58,
     58.95,        61,
        59,        54,
     59.05,        55,
      59.1,        56,
     59.15,        60,
      59.2,        55,
     59.25,        75,
      59.3,        71,
     59.35,        57,
      59.4,        53,
     59.45,        56,
      59.5,        50,
     59.55,        46,
      59.6,        57,
     59.65,        51,
      59.7,        54,
     59.75,        53,
      59.8,        49,
     59.85,        60,
      59.9,        55,
     59.95,        60,
        60,        51,
     60.05,        58,
      60.1,        61,
     60.15,        51,
      60.2,        63,
     60.25,        50,
      60.3,        57,
     60.35,        59,
      60.4,        44,
     60.45,        62,
      60.5,        62,
     60.55,        51,
      60.6,        60,
     60.65,        52,
      60.7,        68,
     60.75,        43,
      60.8,        52,
     60.85,        51,
      60.9,        53,
     60.95,        51,
        61,        52,
     61.05,        53,
      61.1,        55,
     61.15,        65,
      61.2,        65,
     61.25,        46,
      61.3,        63,
     61.35,        45,
      61.4,        50,
     61.45,        45,
      61.5,        61,
     61.55,        65,
      61.6,        63,
     61.65,        64,
      61.7,        67,
     61.75,        63,
      61.8,        51,
     61.85,        69,
      61.9,        61,
     61.95,        58,
        62,        31,
     62.05,        43,
      62.1,        65,
     62.15,        53,
      62.2,        57,
     62.25,        59,
      62.3,        63,
     62.35,        56,
      62.4,        51,
     62.45,        61,
      62.5,        56,
     62.55,        61,
      62.6,        54,
     62.65,        44,
      62.7,        42,
     62.75,        53,
      62.8,        46,
     62.85,        53,
      62.9,        56,
     62.95,        57,
        63,        49,
     63.05,        51,
      63.1,        52,
     63.15,        45,
      63.2,        57,
     63.25,        46,
      63.3,        58,
     63.35,        59,
      63.4,        60,
     63.45,        52,
      63.5,        51,
     63.55,        49,
      63.6,        58,
     63.65,        58,
      63.7,        58,
     63.75,        52,
      63.8,        47,
     63.85,        51,
      63.9,        56,
     63.95,        64,
        64,        52,
     64.05,        61,
      64.1,        69,
     64.15,        62,
      64.2,        47,
     64.25,        44,
      64.3,        57,
     64.35,        54,
      64.4,        59,
     64.45,        47,
      64.5,        51,
     64.55,        54,
      64.6,        48,
     64.65,        52,
      64.7,        45,
     64.75,        53,
      64.8,        51,
     64.85,        61,
      64.9,        52,
     64.95,        58,
        65,        61,
     65.05,        46,
      65.1,        70,
     65.15,        51,
      65.2,        45,
     65.25,        60,
      65.3,        52,
     65.35,        42,
      65.4,        44,
     65.45,        55,
      65.5,        44,
     65.55,        46,
      65.6,        43,
     65.65,        54,
      65.7,        68,
     65.75,        40,
      65.8,        61,
     65.85,        54,
      65.9,        37,
     65.95,        53,
        66,        58,
     66.05,        61,
      66.1,        61,
     66.15,        64,
      66.2,        63,
     66.25,        42,
      66.3,        47,
     66.35,        63,
      66.4,        63,
     66.45,        59,
      66.5,        47,
     66.55,        43,
      66.6,        45,
     66.65,        55,
      66.7,        58,
     66.75,        50,
      66.8,        48,
     66.85,        62,
      66.9,        59,
     66.95,        51,
        67,        41,
     67.05,        47,
      67.1,        60,
     67.15,        44,
      67.2,        39,
     67.25,        50,
      67.3,        48,
     67.35,        59,
      67.4,        55,
     67.45,        46,
      67.5,        55,
     67.55,        53,
      67.6,        64,
     67.65,        57,
      67.7,        53,
     67.75,        54,
      67.8,        51,
     67.85,        48,
      67.9,        43,
     67.95,        68,
        68,        62,
     68.05,        51,
      68.1,        60,
     68.15,        68,
      68.2,        57,
     68.25,        57,
      68.3,        55,
     68.35,        60,
      68.4,        58,
     68.45,        42,
      68.5,        55,
     68.55,        62,
      68.6,        68,
     68.65,        70,
      68.7,        58,
     68.75,        65,
      68.8,        58,
     68.85,        87,
      68.9,        77,
     68.95,        90,
        69,       100,
     69.05,        92,
      69.1,       106,
     69.15,       107,
      69.2,       134,
     69.25,       111,
      69.3,       114,
     69.35,       106,
      69.4,       137,
     69.45,       118,
      69.5,       103,
     69.55,        87,
      69.6,        75,
     69.65,        84,
      69.7,        72,
     69.75,        86,
      69.8,        63,
     69.85,        64,
      69.9,        68,
     69.95,        66,
        70,        71,
     70.05,        68,
      70.1,        59,
     70.15,        50,
      70.2,        62,
     70.25,        52,
      70.3,        60,
     70.35,        48,
      70.4,        71,
     70.45,        57,
      70.5,        50,
     70.55,        71,
      70.6,        68,
     70.65,        56,
      70.7,        50,
     70.75,        58,
      70.8,        55,
     70.85,        72,
      70.9,        59,
     70.95,        63,
        71,        67,
     71.05,        58,
      71.1,        48,
     71.15,        48,
      71.2,        60,
     71.25,        61,
      71.3,        69,
     71.35,        66,
      71.4,        65,
     71.45,        56,
      71.5,        52,
     71.55,        51,
      71.6,        51,
     71.65,        59,
      71.7,        58,
     71.75,        50,
      71.8,        53,
     71.85,        38,
      71.9,        41,
     71.95,        72,
        72,        56,
     72.05,        54,
      72.1,        55,
     72.15,        45,
      72.2,        57,
     72.25,        44,
      72.3,        46,
     72.35,        50,
      72.4,        51,
     72.45,        50,
      72.5,        55,
     72.55,        46,
      72.6,        53,
     72.65,        54,
      72.7,        41,
     72.75,        44,
      72.8,        54,
     72.85,        56,
      72.9,        41,
     72.95,        65,
        73,        42,
     73.05,        40,
      73.1,        58,
     73.15,        52,
      73.2,        53,
     73.25,        60,
      73.3,        52,
     73.35,        47,
      73.4,        47,
     73.45,        58,
      73.5,        45,
     73.55,        49,
      73.6,        52,
     73.65,        53,
      73.7,        53,
     73.75,        62,
      73.8,        61,
     73.85,        55,
      73.9,        53,
     73.95,        46,
        74,        60,
     74.05,        67,
      74.1,        63,
     74.15,        67,
      74.2,        59,
     74.25,        54,
      74.3,        52,
     74.35,        54,
      74.4,        49,
     74.45,        60,
      74.5,        55,
     74.55,        42,
      74.6,        59,
     74.65,        59,
      74.7,        56,
     74.75,        59,
      74.8,        46,
     74.85,        53,
      74.9,        70,
     74.95,        55,
        75,        76,
     75.05,        59,
      75.1,        60,
     75.15,        57,
      75.2,        55,
     75.25,        57,
      75.3,        66,
     75.35,        53,
      75.4,        74,
     75.45,        72,
      75.5,        62,
     75.55,        62,
      75.6,        61,
     75.65,        72,
      75.7,        77,
     75.75,        53,
      75.8,        68,
     75.85,        79,
      75.9,        91,
     75.95,        81,
        76,        97,
     76.05,        82,
      76.1,        82,
     76.15,        96,
      76.2,        97,
     76.25,       129,
      76.3,       119,
     76.35,       141,
      76.4,       166,
     76.45,       176,
      76.5,       166,
     76.55,       153,
      76.6,       180,
     76.65,       174,
      76.7,       136,
     76.75,       160,
      76.8,       131,
     76.85,       117,
      76.9,        99,
     76.95,        83,
        77,        96,
     77.05,       100,
      77.1,        75,
     77.15,        80,
      77.2,        71,
     77.25,        59,
      77.3,        56,
     77.35,        57,
      77.4,        72,
     77.45,        66,
      77.5,        56,
     77.55,        82,
      77.6,        71,
     77.65,        53,
      77.7,        71,
     77.75,        62,
      77.8,        58,
     77.85,        77,
      77.9,        61,
     77.95,        54,
        78,        69,
     78.05,        61,
      78.1,        50,
     78.15,        68,
      78.2,        73,
     78.25,        46,
      78.3,        50,
     78.35,        60,
      78.4,        50,
     78.45,        61,
      78.5,        65,
     78.55,        66,
      78.6,        49,
     78.65,        53,
      78.7,        53,
     78.75,        63,
      78.8,        44,
     78.85,        50,
      78.9,        57,
     78.95,        49,
        79,        52,
     79.05,        59,
      79.1,        63,
     79.15,        52,
      79.2,        67,
     79.25,        61,
      79.3,        49,
     79.35,        47,
      79.4,        46,
     79.45,        57,
      79.5,        53,
     79.55,        63,
      79.6,        57,
     79.65,        52,
      79.7,        59,
     79.75,        51,
      79.8,        63,
     79.85,        64,
      79.9,        50,
     79.95,        56,
        80,        52,
     80.05,        59,
      80.1,        66,
     80.15,        38,
      80.2,        60,
     80.25,        46,
      80.3,        59,
     80.35,        60,
      80.4,        46,
     80.45,        43,
      80.5,        57,
     80.55,        48,
      80.6,        53,
     80.65,        50,
      80.7,        57,
     80.75,        44,
      80.8,        49,
     80.85,        51,
      80.9,        52,
     80.95,        50,
        81,        49,
     81.05,        56,
      81.1,        60,
     81.15,        58,
      81.2,        53,
     81.25,        57,
      81.3,        50,
     81.35,        38,
      81.4,        58,
     81.45,        52,
      81.5,        38,
     81.55,        57,
      81.6,        45,
     81.65,        48,
      81.7,        46,
     81.75,        50,
      81.8,        60,
     81.85,        49,
      81.9,        46,
     81.95,        59,
        82,        50,
     82.05,        53,
      82.1,        51,
     82.15,        53,
      82.2,        55,
     82.25,        49,
      82.3,        42,
     82.35,        49,
      82.4,        50,
     82.45,        54,
      82.5,        56,
     82.55,        48,
      82.6,        52,
     82.65,        50,
      82.7,        48,
     82.75,        50,
      82.8,        53,
     82.85,        58,
      82.9,        62,
     82.95,        61,
        83,        45,
     83.05,        49,
      83.1,        45,
     83.15,        45,
      83.2,        53,
     83.25,        51,
      83.3,        47,
     83.35,        40,
      83.4,        42,
     83.45,        50,
      83.5,        47,
     83.55,        58,
      83.6,        55,
     83.65,        49,
      83.7,        59,
     83.75,        33,
      83.8,        58,
     83.85,        48,
      83.9,        52,
     83.95,        43,
        84,        39,
     84.05,        46,
      84.1,        44,
     84.15,        42,
      84.2,        51,
     84.25,        39,
      84.3,        42,
     84.35,        41,
      84.4,        46,
     84.45,        41,
      84.5,        40,
     84.55,        39,
      84.6,        30,
     84.65,        45,
      84.7,        51,
     84.75,        44,
      84.8,        50,
     84.85,        61,
      84.9,        40,
     84.95,        50,
        85,        43,
     85.05,        45,
      85.1,        35,
     85.15,        45,
      85.2,        48,
     85.25,        51,
      85.3,        50,
     85.35,        54,
      85.4,        51,
     85.45,        33,
      85.5,        43,
     85.55,        49,
      85.6,        42,
     85.65,        47,
      85.7,        37,
     85.75,        38,
      85.8,        47,
     85.85,        52,
      85.9,        44,
     85.95,        50,
        86,        54,
     86.05,        42,
      86.1,        34,
     86.15,        51,
      86.2,        52,
     86.25,        41,
      86.3,        54,
     86.35,        40,
      86.4,        43,
     86.45,        42,
      86.5,        50,
     86.55,        39,
      86.6,        49,
     86.65,        60,
      86.7,        65,
     86.75,        48,
      86.8,        49,
     86.85,        59,
      86.9,        48,
     86.95,        55,
        87,        59,
     87.05,        47,
      87.1,        52,
     87.15,        47,
      87.2,        54,
     87.25,        71,
      87.3,        52,
     87.35,        68,
      87.4,        74,
     87.45,        67,
      87.5,        62,
     87.55,        67,
      87.6,        78,
     87.65,        73,
      87.7,        76,
     87.75,        86,
      87.8,        90,
     87.85,        98,
      87.9,       118,
     87.95,       128,
        88,       145,
     88.05,       153,
      88.1,       152,
     88.15,       162,
      88.2,       175,
     88.25,       179,
      88.3,       171,
     88.35,       138,
      88.4,       171,
     88.45,       135,
      88.5,       132,
     88.55,       100,
      88.6,       128,
     88.65,       104,
      88.7,        91,
     88.75,        83,
      88.8,        93,
     88.85,        90,
      88.9,        67,
     88.95,        70,
        89,        73,
     89.05,        60,
      89.1,        45,
     89.15,        52,
      89.2,        57,
     89.25,        60,
      89.3,        56,
     89.35,        56,
      89.4,        62,
     89.45,        47,
      89.5,        47,
     89.55,        50,
      89.6,        57,
     89.65,        52,
      89.7,        44,
     89.75,        47,
      89.8,        44,
     89.85,        62,
      89.9,        64,
     89.95,        47,
        90,        40,
