;RAW4.00
[RawHeader]
Date=11/08/2019
EstimatedTotalTime=0
FurtherDQLReading=0
HardwareIndicator=65519
MeasuredTotalTime=0
MeasurementFlag=1
NumberOfMeasuredRanges=1
NumberOfRanges=1
Time=12:16:35

[HardwareConfiguration]
AbsorptionFactor=0
ActivateAbsorber=0
Alpha1=1.5406
Alpha2=1.54439
AlphaAverage=1.54184
AlphaRatio=0.5
Analyzer=1
Anode=Cu
AntiScatteringSlit=0.15
BeamOpticsFlags=5
Beta=1.39222
BetaRelativeIntensity=0
DeactivateAbsorber=0
DetectorSlit=1
DivergenceSlit=0.15
GoniometerControl=9999
GoniometerDiameter=435
GoniometerModel=520
GoniometerStage=0
Monochromator=0
NearSampleSlit=1
PrimarySollerSlit=1
SampleChanger=0
SecondSollerSlit=2
SynchronousAxis=0
ThinFilmAttachment=0.46
WaveUnit=A

[VarInfo]
Type=OSUSER
Flags=0
Value=mselab

[VarInfo]
Type=USER
Flags=0
Value=XRAYUSER

[VarInfo]
Type=SITE
Flags=0
Value=171

[VarInfo]
Type=CREATOR
Flags=0
Value=XRD Commander

[RangeHeader]
ActuallyUsedLambda=1.5406
AdditionalDetectorMask=0
DataRecordLength=4
DelayTime=0
DisplayPlaneNumber=0
EstimatedScanTime=0
ExtraParametersMask=0
GeneratorCurrent=9999
GeneratorVoltage=9999
Increment=0.02
Increment3=0
NumberOfCompletedData=3001
NumberOfCounts=1
NumberOfDetectors=1
NumberOfDrives=2
NumberOfEncoderDrives=0
NumberOfMeasuredData=3001
NumberOfVaryingParameters=0
RangeStartTime=1320913734
RotationSpeed=0
ScanMode=0
ScanType=Locked Coupled
SimulatedMeasConditions=0
SlitChangerIn=9999
SmootingWidth=0
Start=40
Steps=3001
SynchronousRotation=0
Time=1

[Drive]
DriveFlags=1
DriveName=Theta
DriveNumber=1
DriveOffset=0
OffsetIndex=0
OscillationAmplitude=0
OscillationSpeed=0
StartPosition=20

[Drive]
DriveFlags=1
DriveName=2Theta
DriveNumber=2
DriveOffset=0
OffsetIndex=0
OscillationAmplitude=0
OscillationSpeed=0
StartPosition=40

[Detector]
AmplifierGain=0
ConstantDeadTime=0
DetectorFlags=256
DetectorName=Detector 1
DetectorNumber=1
DetectorType=1
Discriminator1LowerLevel=0
Discriminator1WindowWidth=0
Discriminator2LowerLevel=0
Discriminator2WindowWidth=0
HighVoltage=0
PileUpTime=0
PulseShaping=9999
TTLDetectorName=

[Data]
     Angle, Det1Disc1,
        40,       282,
     40.02,       316,
     40.04,       277,
     40.06,       283,
     40.08,       310,
      40.1,       321,
     40.12,       287,
     40.14,       305,
     40.16,       330,
     40.18,       281,
      40.2,       303,
     40.22,       287,
     40.24,       269,
     40.26,       267,
     40.28,       316,
      40.3,       290,
     40.32,       305,
     40.34,       310,
     40.36,       296,
     40.38,       299,
      40.4,       298,
     40.42,       321,
     40.44,       304,
     40.46,       294,
     40.48,       273,
      40.5,       308,
     40.52,       316,
     40.54,       297,
     40.56,       300,
     40.58,       297,
      40.6,       254,
     40.62,       290,
     40.64,       297,
     40.66,       286,
     40.68,       322,
      40.7,       295,
     40.72,       325,
     40.74,       297,
     40.76,       285,
     40.78,       283,
      40.8,       301,
     40.82,       290,
     40.84,       319,
     40.86,       299,
     40.88,       300,
      40.9,       319,
     40.92,       265,
     40.94,       322,
     40.96,       297,
     40.98,       310,
        41,       308,
     41.02,       302,
     41.04,       319,
     41.06,       277,
     41.08,       298,
      41.1,       288,
     41.12,       299,
     41.14,       278,
     41.16,       260,
     41.18,       311,
      41.2,       264,
     41.22,       313,
     41.24,       305,
     41.26,       340,
     41.28,       296,
      41.3,       318,
     41.32,       295,
     41.34,       290,
     41.36,       320,
     41.38,       316,
      41.4,       291,
     41.42,       313,
     41.44,       290,
     41.46,       303,
     41.48,       282,
      41.5,       298,
     41.52,       303,
     41.54,       331,
     41.56,       296,
     41.58,       311,
      41.6,       288,
     41.62,       317,
     41.64,       337,
     41.66,       304,
     41.68,       319,
      41.7,       290,
     41.72,       288,
     41.74,       298,
     41.76,       292,
     41.78,       308,
      41.8,       327,
     41.82,       278,
     41.84,       323,
     41.86,       343,
     41.88,       324,
      41.9,       322,
     41.92,       332,
     41.94,       274,
     41.96,       321,
     41.98,       320,
        42,       302,
     42.02,       334,
     42.04,       312,
     42.06,       293,
     42.08,       326,
      42.1,       309,
     42.12,       348,
     42.14,       322,
     42.16,       331,
     42.18,       321,
      42.2,       340,
     42.22,       290,
     42.24,       322,
     42.26,       326,
     42.28,       290,
      42.3,       308,
     42.32,       354,
     42.34,       357,
     42.36,       312,
     42.38,       304,
      42.4,       322,
     42.42,       333,
     42.44,       321,
     42.46,       316,
     42.48,       360,
      42.5,       306,
     42.52,       344,
     42.54,       309,
     42.56,       336,
     42.58,       331,
      42.6,       377,
     42.62,       313,
     42.64,       361,
     42.66,       344,
     42.68,       322,
      42.7,       358,
     42.72,       360,
     42.74,       356,
     42.76,       353,
     42.78,       366,
      42.8,       379,
     42.82,       365,
     42.84,       387,
     42.86,       368,
     42.88,       334,
      42.9,       381,
     42.92,       396,
     42.94,       384,
     42.96,       420,
     42.98,       422,
        43,       455,
     43.02,       471,
     43.04,       468,
     43.06,       522,
     43.08,       565,
      43.1,       606,
     43.12,       689,
     43.14,       818,
     43.16,       909,
     43.18,      1024,
      43.2,      1285,
     43.22,      1719,
     43.24,      1883,
     43.26,      2495,
     43.28,      3142,
      43.3,      3711,
     43.32,      4377,
     43.34,      5056,
     43.36,      5651,
     43.38,      6219,
      43.4,      6446,
     43.42,      6562,
     43.44,      6535,
     43.46,      6284,
     43.48,      5737,
      43.5,      5272,
     43.52,      4528,
     43.54,      3922,
     43.56,      3372,
     43.58,      2809,
      43.6,      2309,
     43.62,      1963,
     43.64,      1488,
     43.66,      1254,
     43.68,      1093,
      43.7,       865,
     43.72,       792,
     43.74,       678,
     43.76,       630,
     43.78,       536,
      43.8,       509,
     43.82,       507,
     43.84,       429,
     43.86,       460,
     43.88,       453,
      43.9,       437,
     43.92,       435,
     43.94,       416,
     43.96,       387,
     43.98,       408,
        44,       390,
     44.02,       349,
     44.04,       362,
     44.06,       411,
     44.08,       349,
      44.1,       352,
     44.12,       389,
     44.14,       348,
     44.16,       337,
     44.18,       372,
      44.2,       336,
     44.22,       343,
     44.24,       343,
     44.26,       316,
     44.28,       337,
      44.3,       369,
     44.32,       329,
     44.34,       354,
     44.36,       340,
     44.38,       365,
      44.4,       353,
     44.42,       307,
     44.44,       339,
     44.46,       331,
     44.48,       360,
      44.5,       334,
     44.52,       343,
     44.54,       301,
     44.56,       357,
     44.58,       307,
      44.6,       347,
     44.62,       338,
     44.64,       295,
     44.66,       343,
     44.68,       331,
      44.7,       344,
     44.72,       312,
     44.74,       302,
     44.76,       335,
     44.78,       334,
      44.8,       319,
     44.82,       306,
     44.84,       327,
     44.86,       354,
     44.88,       306,
      44.9,       326,
     44.92,       324,
     44.94,       304,
     44.96,       305,
     44.98,       337,
        45,       304,
     45.02,       333,
     45.04,       340,
     45.06,       324,
     45.08,       319,
      45.1,       324,
     45.12,       317,
     45.14,       304,
     45.16,       301,
     45.18,       316,
      45.2,       349,
     45.22,       316,
     45.24,       305,
     45.26,       272,
     45.28,       317,
      45.3,       324,
     45.32,       329,
     45.34,       333,
     45.36,       329,
     45.38,       313,
      45.4,       333,
     45.42,       319,
     45.44,       280,
     45.46,       305,
     45.48,       284,
      45.5,       284,
     45.52,       336,
     45.54,       314,
     45.56,       311,
     45.58,       309,
      45.6,       310,
     45.62,       300,
     45.64,       312,
     45.66,       317,
     45.68,       299,
      45.7,       302,
     45.72,       331,
     45.74,       311,
     45.76,       296,
     45.78,       310,
      45.8,       298,
     45.82,       267,
     45.84,       293,
     45.86,       306,
     45.88,       299,
      45.9,       293,
     45.92,       326,
     45.94,       273,
     45.96,       310,
     45.98,       349,
        46,       323,
     46.02,       276,
     46.04,       317,
     46.06,       299,
     46.08,       282,
      46.1,       291,
     46.12,       297,
     46.14,       309,
     46.16,       314,
     46.18,       322,
      46.2,       324,
     46.22,       316,
     46.24,       302,
     46.26,       318,
     46.28,       314,
      46.3,       280,
     46.32,       313,
     46.34,       275,
     46.36,       265,
     46.38,       304,
      46.4,       275,
     46.42,       326,
     46.44,       305,
     46.46,       291,
     46.48,       329,
      46.5,       319,
     46.52,       285,
     46.54,       314,
     46.56,       310,
     46.58,       294,
      46.6,       311,
     46.62,       279,
     46.64,       312,
     46.66,       298,
     46.68,       323,
      46.7,       301,
     46.72,       314,
     46.74,       315,
     46.76,       299,
     46.78,       335,
      46.8,       272,
     46.82,       317,
     46.84,       290,
     46.86,       304,
     46.88,       297,
      46.9,       301,
     46.92,       324,
     46.94,       316,
     46.96,       331,
     46.98,       334,
        47,       307,
     47.02,       301,
     47.04,       342,
     47.06,       324,
     47.08,       274,
      47.1,       280,
     47.12,       309,
     47.14,       326,
     47.16,       295,
     47.18,       296,
      47.2,       297,
     47.22,       320,
     47.24,       326,
     47.26,       298,
     47.28,       329,
      47.3,       295,
     47.32,       321,
     47.34,       279,
     47.36,       311,
     47.38,       284,
      47.4,       300,
     47.42,       303,
     47.44,       294,
     47.46,       291,
     47.48,       284,
      47.5,       302,
     47.52,       290,
     47.54,       305,
     47.56,       330,
     47.58,       310,
      47.6,       304,
     47.62,       261,
     47.64,       299,
     47.66,       305,
     47.68,       304,
      47.7,       362,
     47.72,       302,
     47.74,       298,
     47.76,       317,
     47.78,       321,
      47.8,       310,
     47.82,       284,
     47.84,       322,
     47.86,       281,
     47.88,       303,
      47.9,       274,
     47.92,       285,
     47.94,       313,
     47.96,       317,
     47.98,       284,
        48,       312,
     48.02,       332,
     48.04,       293,
     48.06,       276,
     48.08,       312,
      48.1,       280,
     48.12,       343,
     48.14,       308,
     48.16,       310,
     48.18,       295,
      48.2,       345,
     48.22,       311,
     48.24,       296,
     48.26,       332,
     48.28,       332,
      48.3,       300,
     48.32,       329,
     48.34,       351,
     48.36,       319,
     48.38,       288,
      48.4,       320,
     48.42,       324,
     48.44,       289,
     48.46,       294,
     48.48,       287,
      48.5,       326,
     48.52,       318,
     48.54,       311,
     48.56,       310,
     48.58,       353,
      48.6,       302,
     48.62,       319,
     48.64,       289,
     48.66,       319,
     48.68,       314,
      48.7,       313,
     48.72,       305,
     48.74,       301,
     48.76,       292,
     48.78,       318,
      48.8,       303,
     48.82,       330,
     48.84,       296,
     48.86,       283,
     48.88,       335,
      48.9,       335,
     48.92,       332,
     48.94,       308,
     48.96,       316,
     48.98,       293,
        49,       343,
     49.02,       352,
     49.04,       301,
     49.06,       324,
     49.08,       304,
      49.1,       339,
     49.12,       330,
     49.14,       337,
     49.16,       345,
     49.18,       320,
      49.2,       331,
     49.22,       293,
     49.24,       327,
     49.26,       327,
     49.28,       335,
      49.3,       337,
     49.32,       301,
     49.34,       329,
     49.36,       331,
     49.38,       301,
      49.4,       317,
     49.42,       331,
     49.44,       324,
     49.46,       329,
     49.48,       340,
      49.5,       333,
     49.52,       353,
     49.54,       327,
     49.56,       360,
     49.58,       334,
      49.6,       347,
     49.62,       314,
     49.64,       303,
     49.66,       351,
     49.68,       356,
      49.7,       322,
     49.72,       346,
     49.74,       315,
     49.76,       321,
     49.78,       337,
      49.8,       300,
     49.82,       335,
     49.84,       369,
     49.86,       388,
     49.88,       352,
      49.9,       354,
     49.92,       348,
     49.94,       358,
     49.96,       365,
     49.98,       394,
        50,       393,
     50.02,       441,
     50.04,       377,
     50.06,       413,
     50.08,       405,
      50.1,       416,
     50.12,       474,
     50.14,       490,
     50.16,       477,
     50.18,       529,
      50.2,       538,
     50.22,       582,
     50.24,       686,
     50.26,       638,
     50.28,       765,
      50.3,       864,
     50.32,       926,
     50.34,       954,
     50.36,      1157,
     50.38,      1323,
      50.4,      1440,
     50.42,      1652,
     50.44,      1787,
     50.46,      2113,
     50.48,      2329,
      50.5,      2412,
     50.52,      2612,
     50.54,      2596,
     50.56,      2616,
     50.58,      2529,
      50.6,      2499,
     50.62,      2319,
     50.64,      2256,
     50.66,      2038,
     50.68,      1797,
      50.7,      1660,
     50.72,      1502,
     50.74,      1404,
     50.76,      1201,
     50.78,      1040,
      50.8,       956,
     50.82,       825,
     50.84,       767,
     50.86,       693,
     50.88,       623,
      50.9,       590,
     50.92,       625,
     50.94,       501,
     50.96,       475,
     50.98,       473,
        51,       450,
     51.02,       431,
     51.04,       438,
     51.06,       379,
     51.08,       396,
      51.1,       390,
     51.12,       413,
     51.14,       375,
     51.16,       397,
     51.18,       356,
      51.2,       370,
     51.22,       340,
     51.24,       377,
     51.26,       349,
     51.28,       349,
      51.3,       351,
     51.32,       348,
     51.34,       362,
     51.36,       339,
     51.38,       327,
      51.4,       333,
     51.42,       359,
     51.44,       340,
     51.46,       363,
     51.48,       333,
      51.5,       321,
     51.52,       339,
     51.54,       283,
     51.56,       344,
     51.58,       317,
      51.6,       315,
     51.62,       288,
     51.64,       344,
     51.66,       313,
     51.68,       313,
      51.7,       310,
     51.72,       301,
     51.74,       345,
     51.76,       315,
     51.78,       308,
      51.8,       310,
     51.82,       323,
     51.84,       322,
     51.86,       317,
     51.88,       318,
      51.9,       308,
     51.92,       328,
     51.94,       287,
     51.96,       297,
     51.98,       302,
        52,       297,
     52.02,       322,
     52.04,       332,
     52.06,       304,
     52.08,       322,
      52.1,       315,
     52.12,       293,
     52.14,       316,
     52.16,       337,
     52.18,       303,
      52.2,       318,
     52.22,       320,
     52.24,       298,
     52.26,       301,
     52.28,       307,
      52.3,       303,
     52.32,       323,
     52.34,       307,
     52.36,       337,
     52.38,       331,
      52.4,       312,
     52.42,       295,
     52.44,       324,
     52.46,       295,
     52.48,       318,
      52.5,       329,
     52.52,       323,
     52.54,       329,
     52.56,       300,
     52.58,       300,
      52.6,       309,
     52.62,       313,
     52.64,       302,
     52.66,       299,
     52.68,       318,
      52.7,       325,
     52.72,       312,
     52.74,       284,
     52.76,       342,
     52.78,       296,
      52.8,       300,
     52.82,       315,
     52.84,       316,
     52.86,       331,
     52.88,       292,
      52.9,       330,
     52.92,       317,
     52.94,       322,
     52.96,       330,
     52.98,       321,
        53,       285,
     53.02,       309,
     53.04,       332,
     53.06,       329,
     53.08,       312,
      53.1,       313,
     53.12,       301,
     53.14,       320,
     53.16,       324,
     53.18,       277,
      53.2,       305,
     53.22,       318,
     53.24,       312,
     53.26,       309,
     53.28,       341,
      53.3,       277,
     53.32,       297,
     53.34,       282,
     53.36,       299,
     53.38,       320,
      53.4,       306,
     53.42,       317,
     53.44,       311,
     53.46,       294,
     53.48,       329,
      53.5,       295,
     53.52,       311,
     53.54,       289,
     53.56,       337,
     53.58,       310,
      53.6,       323,
     53.62,       319,
     53.64,       273,
     53.66,       318,
     53.68,       303,
      53.7,       307,
     53.72,       294,
     53.74,       279,
     53.76,       330,
     53.78,       339,
      53.8,       314,
     53.82,       290,
     53.84,       297,
     53.86,       305,
     53.88,       314,
      53.9,       267,
     53.92,       307,
     53.94,       314,
     53.96,       321,
     53.98,       301,
        54,       285,
     54.02,       281,
     54.04,       328,
     54.06,       320,
     54.08,       313,
      54.1,       320,
     54.12,       290,
     54.14,       301,
     54.16,       325,
     54.18,       304,
      54.2,       286,
     54.22,       329,
     54.24,       305,
     54.26,       337,
     54.28,       327,
      54.3,       290,
     54.32,       292,
     54.34,       298,
     54.36,       314,
     54.38,       328,
      54.4,       291,
     54.42,       304,
     54.44,       294,
     54.46,       332,
     54.48,       289,
      54.5,       311,
     54.52,       284,
     54.54,       305,
     54.56,       322,
     54.58,       331,
      54.6,       269,
     54.62,       315,
     54.64,       295,
     54.66,       302,
     54.68,       310,
      54.7,       274,
     54.72,       290,
     54.74,       306,
     54.76,       294,
     54.78,       294,
      54.8,       326,
     54.82,       302,
     54.84,       334,
     54.86,       281,
     54.88,       295,
      54.9,       294,
     54.92,       308,
     54.94,       292,
     54.96,       350,
     54.98,       300,
        55,       335,
     55.02,       322,
     55.04,       321,
     55.06,       308,
     55.08,       322,
      55.1,       288,
     55.12,       286,
     55.14,       315,
     55.16,       330,
     55.18,       304,
      55.2,       291,
     55.22,       277,
     55.24,       310,
     55.26,       312,
     55.28,       275,
      55.3,       320,
     55.32,       309,
     55.34,       325,
     55.36,       295,
     55.38,       320,
      55.4,       302,
     55.42,       312,
     55.44,       326,
     55.46,       287,
     55.48,       330,
      55.5,       310,
     55.52,       301,
     55.54,       286,
     55.56,       314,
     55.58,       282,
      55.6,       282,
     55.62,       333,
     55.64,       305,
     55.66,       313,
     55.68,       333,
      55.7,       315,
     55.72,       320,
     55.74,       302,
     55.76,       304,
     55.78,       322,
      55.8,       309,
     55.82,       331,
     55.84,       325,
     55.86,       314,
     55.88,       309,
      55.9,       293,
     55.92,       329,
     55.94,       296,
     55.96,       294,
     55.98,       314,
        56,       322,
     56.02,       306,
     56.04,       320,
     56.06,       286,
     56.08,       321,
      56.1,       296,
     56.12,       305,
     56.14,       298,
     56.16,       317,
     56.18,       316,
      56.2,       305,
     56.22,       309,
     56.24,       312,
     56.26,       294,
     56.28,       296,
      56.3,       280,
     56.32,       282,
     56.34,       296,
     56.36,       287,
     56.38,       317,
      56.4,       323,
     56.42,       308,
     56.44,       333,
     56.46,       305,
     56.48,       278,
      56.5,       285,
     56.52,       315,
     56.54,       302,
     56.56,       312,
     56.58,       282,
      56.6,       303,
     56.62,       302,
     56.64,       313,
     56.66,       301,
     56.68,       305,
      56.7,       314,
     56.72,       289,
     56.74,       325,
     56.76,       314,
     56.78,       324,
      56.8,       301,
     56.82,       290,
     56.84,       321,
     56.86,       280,
     56.88,       277,
      56.9,       305,
     56.92,       307,
     56.94,       298,
     56.96,       296,
     56.98,       331,
        57,       300,
     57.02,       315,
     57.04,       299,
     57.06,       312,
     57.08,       307,
      57.1,       295,
     57.12,       346,
     57.14,       305,
     57.16,       308,
     57.18,       321,
      57.2,       290,
     57.22,       315,
     57.24,       285,
     57.26,       307,
     57.28,       321,
      57.3,       300,
     57.32,       324,
     57.34,       302,
     57.36,       332,
     57.38,       306,
      57.4,       341,
     57.42,       310,
     57.44,       339,
     57.46,       314,
     57.48,       315,
      57.5,       347,
     57.52,       288,
     57.54,       316,
     57.56,       303,
     57.58,       328,
      57.6,       330,
     57.62,       317,
     57.64,       325,
     57.66,       321,
     57.68,       295,
      57.7,       325,
     57.72,       317,
     57.74,       294,
     57.76,       295,
     57.78,       322,
      57.8,       325,
     57.82,       301,
     57.84,       298,
     57.86,       312,
     57.88,       286,
      57.9,       309,
     57.92,       316,
     57.94,       305,
     57.96,       291,
     57.98,       290,
        58,       296,
     58.02,       317,
     58.04,       280,
     58.06,       294,
     58.08,       328,
      58.1,       305,
     58.12,       353,
     58.14,       301,
     58.16,       290,
     58.18,       287,
      58.2,       292,
     58.22,       313,
     58.24,       316,
     58.26,       320,
     58.28,       355,
      58.3,       326,
     58.32,       321,
     58.34,       282,
     58.36,       331,
     58.38,       278,
      58.4,       328,
     58.42,       294,
     58.44,       291,
     58.46,       314,
     58.48,       265,
      58.5,       284,
     58.52,       293,
     58.54,       329,
     58.56,       324,
     58.58,       314,
      58.6,       333,
     58.62,       313,
     58.64,       316,
     58.66,       306,
     58.68,       310,
      58.7,       278,
     58.72,       334,
     58.74,       316,
     58.76,       320,
     58.78,       326,
      58.8,       286,
     58.82,       311,
     58.84,       310,
     58.86,       333,
     58.88,       332,
      58.9,       297,
     58.92,       331,
     58.94,       317,
     58.96,       312,
     58.98,       335,
        59,       296,
     59.02,       308,
     59.04,       323,
     59.06,       308,
     59.08,       282,
      59.1,       297,
     59.12,       288,
     59.14,       319,
     59.16,       298,
     59.18,       323,
      59.2,       325,
     59.22,       305,
     59.24,       308,
     59.26,       323,
     59.28,       319,
      59.3,       317,
     59.32,       292,
     59.34,       312,
     59.36,       351,
     59.38,       322,
      59.4,       299,
     59.42,       346,
     59.44,       321,
     59.46,       336,
     59.48,       278,
      59.5,       293,
     59.52,       323,
     59.54,       332,
     59.56,       286,
     59.58,       300,
      59.6,       328,
     59.62,       318,
     59.64,       312,
     59.66,       324,
     59.68,       316,
      59.7,       300,
     59.72,       332,
     59.74,       276,
     59.76,       337,
     59.78,       317,
      59.8,       349,
     59.82,       294,
     59.84,       314,
     59.86,       319,
     59.88,       318,
      59.9,       308,
     59.92,       323,
     59.94,       311,
     59.96,       311,
     59.98,       322,
        60,       308,
     60.02,       298,
     60.04,       305,
     60.06,       308,
     60.08,       319,
      60.1,       348,
     60.12,       311,
     60.14,       287,
     60.16,       337,
     60.18,       360,
      60.2,       339,
     60.22,       296,
     60.24,       304,
     60.26,       326,
     60.28,       346,
      60.3,       309,
     60.32,       295,
     60.34,       318,
     60.36,       348,
     60.38,       327,
      60.4,       270,
     60.42,       313,
     60.44,       292,
     60.46,       313,
     60.48,       355,
      60.5,       329,
     60.52,       310,
     60.54,       312,
     60.56,       338,
     60.58,       317,
      60.6,       307,
     60.62,       312,
     60.64,       330,
     60.66,       345,
     60.68,       309,
      60.7,       280,
     60.72,       320,
     60.74,       331,
     60.76,       285,
     60.78,       311,
      60.8,       326,
     60.82,       314,
     60.84,       346,
     60.86,       312,
     60.88,       286,
      60.9,       325,
     60.92,       326,
     60.94,       341,
     60.96,       336,
     60.98,       295,
        61,       303,
     61.02,       280,
     61.04,       330,
     61.06,       299,
     61.08,       302,
      61.1,       293,
     61.12,       338,
     61.14,       287,
     61.16,       336,
     61.18,       335,
      61.2,       310,
     61.22,       300,
     61.24,       325,
     61.26,       290,
     61.28,       342,
      61.3,       334,
     61.32,       319,
     61.34,       287,
     61.36,       293,
     61.38,       326,
      61.4,       344,
     61.42,       316,
     61.44,       319,
     61.46,       305,
     61.48,       311,
      61.5,       308,
     61.52,       326,
     61.54,       289,
     61.56,       316,
     61.58,       309,
      61.6,       334,
     61.62,       327,
     61.64,       330,
     61.66,       348,
     61.68,       325,
      61.7,       319,
     61.72,       307,
     61.74,       280,
     61.76,       309,
     61.78,       307,
      61.8,       289,
     61.82,       318,
     61.84,       288,
     61.86,       320,
     61.88,       308,
      61.9,       326,
     61.92,       291,
     61.94,       295,
     61.96,       307,
     61.98,       331,
        62,       337,
     62.02,       310,
     62.04,       315,
     62.06,       302,
     62.08,       326,
      62.1,       298,
     62.12,       335,
     62.14,       318,
     62.16,       323,
     62.18,       338,
      62.2,       301,
     62.22,       318,
     62.24,       300,
     62.26,       307,
     62.28,       343,
      62.3,       302,
     62.32,       350,
     62.34,       351,
     62.36,       299,
     62.38,       324,
      62.4,       304,
     62.42,       301,
     62.44,       314,
     62.46,       301,
     62.48,       286,
      62.5,       314,
     62.52,       350,
     62.54,       325,
     62.56,       339,
     62.58,       274,
      62.6,       308,
     62.62,       328,
     62.64,       320,
     62.66,       324,
     62.68,       344,
      62.7,       336,
     62.72,       303,
     62.74,       318,
     62.76,       330,
     62.78,       316,
      62.8,       321,
     62.82,       350,
     62.84,       299,
     62.86,       289,
     62.88,       303,
      62.9,       324,
     62.92,       353,
     62.94,       339,
     62.96,       334,
     62.98,       264,
        63,       301,
     63.02,       306,
     63.04,       351,
     63.06,       303,
     63.08,       349,
      63.1,       304,
     63.12,       276,
     63.14,       339,
     63.16,       323,
     63.18,       318,
      63.2,       311,
     63.22,       318,
     63.24,       292,
     63.26,       363,
     63.28,       308,
      63.3,       333,
     63.32,       324,
     63.34,       333,
     63.36,       318,
     63.38,       364,
      63.4,       331,
     63.42,       329,
     63.44,       304,
     63.46,       292,
     63.48,       341,
      63.5,       313,
     63.52,       344,
     63.54,       336,
     63.56,       292,
     63.58,       318,
      63.6,       344,
     63.62,       324,
     63.64,       340,
     63.66,       346,
     63.68,       333,
      63.7,       321,
     63.72,       341,
     63.74,       337,
     63.76,       304,
     63.78,       317,
      63.8,       320,
     63.82,       294,
     63.84,       333,
     63.86,       317,
     63.88,       348,
      63.9,       310,
     63.92,       303,
     63.94,       307,
     63.96,       342,
     63.98,       306,
        64,       324,
     64.02,       329,
     64.04,       352,
     64.06,       320,
     64.08,       312,
      64.1,       325,
     64.12,       311,
     64.14,       338,
     64.16,       359,
     64.18,       319,
      64.2,       330,
     64.22,       324,
     64.24,       305,
     64.26,       296,
     64.28,       334,
      64.3,       315,
     64.32,       288,
     64.34,       344,
     64.36,       313,
     64.38,       322,
      64.4,       324,
     64.42,       325,
     64.44,       330,
     64.46,       333,
     64.48,       300,
      64.5,       318,
     64.52,       319,
     64.54,       321,
     64.56,       322,
     64.58,       297,
      64.6,       314,
     64.62,       320,
     64.64,       322,
     64.66,       333,
     64.68,       327,
      64.7,       335,
     64.72,       341,
     64.74,       326,
     64.76,       305,
     64.78,       326,
      64.8,       310,
     64.82,       349,
     64.84,       329,
     64.86,       327,
     64.88,       350,
      64.9,       312,
     64.92,       307,
     64.94,       321,
     64.96,       333,
     64.98,       351,
        65,       296,
     65.02,       328,
     65.04,       329,
     65.06,       295,
     65.08,       323,
      65.1,       303,
     65.12,       320,
     65.14,       336,
     65.16,       324,
     65.18,       321,
      65.2,       295,
     65.22,       324,
     65.24,       341,
     65.26,       322,
     65.28,       344,
      65.3,       353,
     65.32,       309,
     65.34,       361,
     65.36,       328,
     65.38,       311,
      65.4,       308,
     65.42,       333,
     65.44,       321,
     65.46,       341,
     65.48,       324,
      65.5,       320,
     65.52,       311,
     65.54,       323,
     65.56,       322,
     65.58,       299,
      65.6,       334,
     65.62,       326,
     65.64,       344,
     65.66,       307,
     65.68,       321,
      65.7,       346,
     65.72,       330,
     65.74,       301,
     65.76,       335,
     65.78,       339,
      65.8,       287,
     65.82,       319,
     65.84,       369,
     65.86,       332,
     65.88,       360,
      65.9,       349,
     65.92,       307,
     65.94,       334,
     65.96,       325,
     65.98,       324,
        66,       306,
     66.02,       336,
     66.04,       351,
     66.06,       329,
     66.08,       334,
      66.1,       331,
     66.12,       317,
     66.14,       313,
     66.16,       345,
     66.18,       324,
      66.2,       329,
     66.22,       300,
     66.24,       344,
     66.26,       328,
     66.28,       327,
      66.3,       315,
     66.32,       317,
     66.34,       305,
     66.36,       342,
     66.38,       329,
      66.4,       339,
     66.42,       297,
     66.44,       314,
     66.46,       330,
     66.48,       330,
      66.5,       317,
     66.52,       298,
     66.54,       322,
     66.56,       303,
     66.58,       332,
      66.6,       345,
     66.62,       313,
     66.64,       315,
     66.66,       338,
     66.68,       313,
      66.7,       350,
     66.72,       287,
     66.74,       358,
     66.76,       318,
     66.78,       329,
      66.8,       285,
     66.82,       342,
     66.84,       306,
     66.86,       337,
     66.88,       316,
      66.9,       300,
     66.92,       331,
     66.94,       349,
     66.96,       309,
     66.98,       332,
        67,       307,
     67.02,       332,
     67.04,       331,
     67.06,       315,
     67.08,       299,
      67.1,       359,
     67.12,       321,
     67.14,       294,
     67.16,       320,
     67.18,       311,
      67.2,       299,
     67.22,       315,
     67.24,       316,
     67.26,       330,
     67.28,       332,
      67.3,       319,
     67.32,       324,
     67.34,       338,
     67.36,       318,
     67.38,       333,
      67.4,       311,
     67.42,       337,
     67.44,       322,
     67.46,       332,
     67.48,       342,
      67.5,       325,
     67.52,       315,
     67.54,       338,
     67.56,       323,
     67.58,       335,
      67.6,       318,
     67.62,       301,
     67.64,       360,
     67.66,       318,
     67.68,       328,
      67.7,       324,
     67.72,       315,
     67.74,       334,
     67.76,       362,
     67.78,       382,
      67.8,       332,
     67.82,       333,
     67.84,       305,
     67.86,       311,
     67.88,       318,
      67.9,       315,
     67.92,       337,
     67.94,       326,
     67.96,       339,
     67.98,       338,
        68,       333,
     68.02,       327,
     68.04,       305,
     68.06,       315,
     68.08,       327,
      68.1,       328,
     68.12,       303,
     68.14,       319,
     68.16,       319,
     68.18,       318,
      68.2,       333,
     68.22,       322,
     68.24,       311,
     68.26,       376,
     68.28,       294,
      68.3,       344,
     68.32,       320,
     68.34,       283,
     68.36,       313,
     68.38,       306,
      68.4,       326,
     68.42,       341,
     68.44,       303,
     68.46,       323,
     68.48,       302,
      68.5,       341,
     68.52,       327,
     68.54,       331,
     68.56,       309,
     68.58,       335,
      68.6,       320,
     68.62,       315,
     68.64,       301,
     68.66,       318,
     68.68,       339,
      68.7,       303,
     68.72,       333,
     68.74,       331,
     68.76,       349,
     68.78,       345,
      68.8,       336,
     68.82,       318,
     68.84,       318,
     68.86,       321,
     68.88,       299,
      68.9,       288,
     68.92,       342,
     68.94,       286,
     68.96,       332,
     68.98,       305,
        69,       343,
     69.02,       319,
     69.04,       322,
     69.06,       309,
     69.08,       307,
      69.1,       271,
     69.12,       330,
     69.14,       332,
     69.16,       333,
     69.18,       348,
      69.2,       282,
     69.22,       302,
     69.24,       289,
     69.26,       291,
     69.28,       324,
      69.3,       329,
     69.32,       317,
     69.34,       316,
     69.36,       349,
     69.38,       289,
      69.4,       331,
     69.42,       346,
     69.44,       327,
     69.46,       338,
     69.48,       315,
      69.5,       342,
     69.52,       328,
     69.54,       315,
     69.56,       340,
     69.58,       314,
      69.6,       344,
     69.62,       313,
     69.64,       305,
     69.66,       330,
     69.68,       337,
      69.7,       311,
     69.72,       314,
     69.74,       325,
     69.76,       339,
     69.78,       296,
      69.8,       351,
     69.82,       323,
     69.84,       325,
     69.86,       301,
     69.88,       309,
      69.9,       331,
     69.92,       308,
     69.94,       292,
     69.96,       313,
     69.98,       321,
        70,       319,
     70.02,       297,
     70.04,       351,
     70.06,       346,
     70.08,       302,
      70.1,       307,
     70.12,       319,
     70.14,       317,
     70.16,       319,
     70.18,       323,
      70.2,       352,
     70.22,       320,
     70.24,       302,
     70.26,       343,
     70.28,       327,
      70.3,       303,
     70.32,       304,
     70.34,       331,
     70.36,       322,
     70.38,       350,
      70.4,       351,
     70.42,       309,
     70.44,       287,
     70.46,       328,
     70.48,       319,
      70.5,       293,
     70.52,       320,
     70.54,       358,
     70.56,       317,
     70.58,       314,
      70.6,       334,
     70.62,       344,
     70.64,       307,
     70.66,       328,
     70.68,       324,
      70.7,       288,
     70.72,       336,
     70.74,       322,
     70.76,       288,
     70.78,       315,
      70.8,       340,
     70.82,       339,
     70.84,       351,
     70.86,       335,
     70.88,       335,
      70.9,       335,
     70.92,       343,
     70.94,       327,
     70.96,       315,
     70.98,       300,
        71,       326,
     71.02,       368,
     71.04,       330,
     71.06,       314,
     71.08,       356,
      71.1,       332,
     71.12,       335,
     71.14,       360,
     71.16,       303,
     71.18,       348,
      71.2,       328,
     71.22,       324,
     71.24,       320,
     71.26,       337,
     71.28,       306,
      71.3,       354,
     71.32,       303,
     71.34,       339,
     71.36,       335,
     71.38,       304,
      71.4,       331,
     71.42,       324,
     71.44,       324,
     71.46,       304,
     71.48,       331,
      71.5,       335,
     71.52,       313,
     71.54,       314,
     71.56,       310,
     71.58,       330,
      71.6,       345,
     71.62,       305,
     71.64,       342,
     71.66,       328,
     71.68,       329,
      71.7,       336,
     71.72,       317,
     71.74,       341,
     71.76,       298,
     71.78,       313,
      71.8,       332,
     71.82,       303,
     71.84,       332,
     71.86,       325,
     71.88,       339,
      71.9,       371,
     71.92,       337,
     71.94,       319,
     71.96,       327,
     71.98,       327,
        72,       332,
     72.02,       352,
     72.04,       339,
     72.06,       317,
     72.08,       326,
      72.1,       318,
     72.12,       346,
     72.14,       338,
     72.16,       347,
     72.18,       342,
      72.2,       354,
     72.22,       321,
     72.24,       319,
     72.26,       282,
     72.28,       345,
      72.3,       340,
     72.32,       324,
     72.34,       332,
     72.36,       324,
     72.38,       342,
      72.4,       323,
     72.42,       282,
     72.44,       373,
     72.46,       307,
     72.48,       337,
      72.5,       328,
     72.52,       343,
     72.54,       343,
     72.56,       343,
     72.58,       324,
      72.6,       347,
     72.62,       303,
     72.64,       325,
     72.66,       336,
     72.68,       344,
      72.7,       343,
     72.72,       304,
     72.74,       317,
     72.76,       341,
     72.78,       320,
      72.8,       319,
     72.82,       351,
     72.84,       332,
     72.86,       310,
     72.88,       322,
      72.9,       338,
     72.92,       339,
     72.94,       348,
     72.96,       342,
     72.98,       344,
        73,       334,
     73.02,       362,
     73.04,       353,
     73.06,       365,
     73.08,       358,
      73.1,       344,
     73.12,       351,
     73.14,       385,
     73.16,       331,
     73.18,       333,
      73.2,       345,
     73.22,       343,
     73.24,       340,
     73.26,       335,
     73.28,       332,
      73.3,       361,
     73.32,       351,
     73.34,       341,
     73.36,       335,
     73.38,       350,
      73.4,       371,
     73.42,       353,
     73.44,       366,
     73.46,       354,
     73.48,       356,
      73.5,       356,
     73.52,       377,
     73.54,       393,
     73.56,       383,
     73.58,       367,
      73.6,       394,
     73.62,       349,
     73.64,       402,
     73.66,       391,
     73.68,       373,
      73.7,       374,
     73.72,       366,
     73.74,       422,
     73.76,       432,
     73.78,       424,
      73.8,       441,
     73.82,       462,
     73.84,       449,
     73.86,       476,
     73.88,       443,
      73.9,       460,
     73.92,       453,
     73.94,       519,
     73.96,       553,
     73.98,       637,
        74,       628,
     74.02,       676,
     74.04,       773,
     74.06,       834,
     74.08,       922,
      74.1,       976,
     74.12,      1120,
     74.14,      1191,
     74.16,      1267,
     74.18,      1307,
      74.2,      1360,
     74.22,      1370,
     74.24,      1331,
     74.26,      1257,
     74.28,      1279,
      74.3,      1197,
     74.32,      1245,
     74.34,      1161,
     74.36,      1102,
     74.38,      1107,
      74.4,       988,
     74.42,       986,
     74.44,       979,
     74.46,       935,
     74.48,       873,
      74.5,       820,
     74.52,       768,
     74.54,       705,
     74.56,       579,
     74.58,       626,
      74.6,       596,
     74.62,       536,
     74.64,       502,
     74.66,       464,
     74.68,       481,
      74.7,       449,
     74.72,       454,
     74.74,       402,
     74.76,       414,
     74.78,       422,
      74.8,       407,
     74.82,       418,
     74.84,       408,
     74.86,       387,
     74.88,       392,
      74.9,       428,
     74.92,       359,
     74.94,       382,
     74.96,       384,
     74.98,       320,
        75,       335,
     75.02,       366,
     75.04,       312,
     75.06,       359,
     75.08,       349,
      75.1,       362,
     75.12,       352,
     75.14,       325,
     75.16,       333,
     75.18,       346,
      75.2,       357,
     75.22,       388,
     75.24,       352,
     75.26,       344,
     75.28,       357,
      75.3,       367,
     75.32,       354,
     75.34,       346,
     75.36,       330,
     75.38,       309,
      75.4,       346,
     75.42,       301,
     75.44,       350,
     75.46,       313,
     75.48,       333,
      75.5,       338,
     75.52,       345,
     75.54,       319,
     75.56,       355,
     75.58,       354,
      75.6,       353,
     75.62,       316,
     75.64,       328,
     75.66,       372,
     75.68,       364,
      75.7,       358,
     75.72,       339,
     75.74,       307,
     75.76,       349,
     75.78,       315,
      75.8,       301,
     75.82,       369,
     75.84,       370,
     75.86,       311,
     75.88,       347,
      75.9,       332,
     75.92,       355,
     75.94,       332,
     75.96,       339,
     75.98,       327,
        76,       356,
     76.02,       289,
     76.04,       337,
     76.06,       340,
     76.08,       309,
      76.1,       324,
     76.12,       345,
     76.14,       353,
     76.16,       302,
     76.18,       319,
      76.2,       287,
     76.22,       322,
     76.24,       339,
     76.26,       329,
     76.28,       358,
      76.3,       317,
     76.32,       331,
     76.34,       326,
     76.36,       301,
     76.38,       337,
      76.4,       336,
     76.42,       344,
     76.44,       370,
     76.46,       294,
     76.48,       302,
      76.5,       335,
     76.52,       328,
     76.54,       334,
     76.56,       329,
     76.58,       346,
      76.6,       316,
     76.62,       302,
     76.64,       358,
     76.66,       338,
     76.68,       307,
      76.7,       349,
     76.72,       345,
     76.74,       347,
     76.76,       308,
     76.78,       344,
      76.8,       354,
     76.82,       328,
     76.84,       326,
     76.86,       339,
     76.88,       352,
      76.9,       307,
     76.92,       347,
     76.94,       322,
     76.96,       334,
     76.98,       341,
        77,       302,
     77.02,       348,
     77.04,       329,
     77.06,       323,
     77.08,       308,
      77.1,       314,
     77.12,       304,
     77.14,       339,
     77.16,       356,
     77.18,       336,
      77.2,       323,
     77.22,       345,
     77.24,       346,
     77.26,       331,
     77.28,       329,
      77.3,       328,
     77.32,       317,
     77.34,       339,
     77.36,       373,
     77.38,       323,
      77.4,       361,
     77.42,       320,
     77.44,       340,
     77.46,       337,
     77.48,       323,
      77.5,       329,
     77.52,       319,
     77.54,       349,
     77.56,       341,
     77.58,       321,
      77.6,       345,
     77.62,       343,
     77.64,       347,
     77.66,       315,
     77.68,       309,
      77.7,       309,
     77.72,       353,
     77.74,       342,
     77.76,       337,
     77.78,       315,
      77.8,       358,
     77.82,       355,
     77.84,       358,
     77.86,       367,
     77.88,       339,
      77.9,       334,
     77.92,       322,
     77.94,       338,
     77.96,       331,
     77.98,       363,
        78,       350,
     78.02,       372,
     78.04,       338,
     78.06,       295,
     78.08,       303,
      78.1,       364,
     78.12,       318,
     78.14,       382,
     78.16,       343,
     78.18,       306,
      78.2,       339,
     78.22,       341,
     78.24,       325,
     78.26,       364,
     78.28,       352,
      78.3,       332,
     78.32,       325,
     78.34,       319,
     78.36,       315,
     78.38,       329,
      78.4,       324,
     78.42,       306,
     78.44,       345,
     78.46,       320,
     78.48,       327,
      78.5,       336,
     78.52,       328,
     78.54,       304,
     78.56,       320,
     78.58,       314,
      78.6,       358,
     78.62,       352,
     78.64,       344,
     78.66,       332,
     78.68,       350,
      78.7,       310,
     78.72,       319,
     78.74,       339,
     78.76,       352,
     78.78,       335,
      78.8,       321,
     78.82,       326,
     78.84,       332,
     78.86,       321,
     78.88,       310,
      78.9,       322,
     78.92,       322,
     78.94,       357,
     78.96,       335,
     78.98,       331,
        79,       347,
     79.02,       305,
     79.04,       348,
     79.06,       328,
     79.08,       332,
      79.1,       349,
     79.12,       320,
     79.14,       354,
     79.16,       299,
     79.18,       291,
      79.2,       331,
     79.22,       316,
     79.24,       333,
     79.26,       303,
     79.28,       365,
      79.3,       318,
     79.32,       308,
     79.34,       336,
     79.36,       328,
     79.38,       337,
      79.4,       356,
     79.42,       309,
     79.44,       362,
     79.46,       346,
     79.48,       337,
      79.5,       318,
     79.52,       345,
     79.54,       330,
     79.56,       383,
     79.58,       324,
      79.6,       307,
     79.62,       327,
     79.64,       339,
     79.66,       294,
     79.68,       312,
      79.7,       340,
     79.72,       350,
     79.74,       345,
     79.76,       338,
     79.78,       301,
      79.8,       306,
     79.82,       350,
     79.84,       341,
     79.86,       327,
     79.88,       318,
      79.9,       319,
     79.92,       328,
     79.94,       321,
     79.96,       281,
     79.98,       329,
        80,       301,
     80.02,       324,
     80.04,       311,
     80.06,       319,
     80.08,       347,
      80.1,       343,
     80.12,       341,
     80.14,       302,
     80.16,       312,
     80.18,       346,
      80.2,       310,
     80.22,       341,
     80.24,       314,
     80.26,       337,
     80.28,       330,
      80.3,       328,
     80.32,       325,
     80.34,       312,
     80.36,       345,
     80.38,       323,
      80.4,       335,
     80.42,       331,
     80.44,       364,
     80.46,       340,
     80.48,       347,
      80.5,       347,
     80.52,       309,
     80.54,       334,
     80.56,       311,
     80.58,       328,
      80.6,       339,
     80.62,       350,
     80.64,       291,
     80.66,       358,
     80.68,       342,
      80.7,       329,
     80.72,       297,
     80.74,       351,
     80.76,       366,
     80.78,       366,
      80.8,       318,
     80.82,       351,
     80.84,       327,
     80.86,       343,
     80.88,       351,
      80.9,       341,
     80.92,       324,
     80.94,       336,
     80.96,       321,
     80.98,       373,
        81,       306,
     81.02,       372,
     81.04,       317,
     81.06,       331,
     81.08,       336,
      81.1,       343,
     81.12,       345,
     81.14,       298,
     81.16,       337,
     81.18,       340,
      81.2,       321,
     81.22,       345,
     81.24,       316,
     81.26,       353,
     81.28,       344,
      81.3,       346,
     81.32,       308,
     81.34,       353,
     81.36,       314,
     81.38,       342,
      81.4,       318,
     81.42,       326,
     81.44,       333,
     81.46,       322,
     81.48,       329,
      81.5,       365,
     81.52,       332,
     81.54,       343,
     81.56,       311,
     81.58,       331,
      81.6,       330,
     81.62,       313,
     81.64,       346,
     81.66,       337,
     81.68,       333,
      81.7,       314,
     81.72,       348,
     81.74,       368,
     81.76,       340,
     81.78,       358,
      81.8,       336,
     81.82,       344,
     81.84,       332,
     81.86,       324,
     81.88,       346,
      81.9,       357,
     81.92,       335,
     81.94,       351,
     81.96,       275,
     81.98,       326,
        82,       315,
     82.02,       331,
     82.04,       309,
     82.06,       334,
     82.08,       313,
      82.1,       341,
     82.12,       312,
     82.14,       335,
     82.16,       347,
     82.18,       322,
      82.2,       355,
     82.22,       314,
     82.24,       312,
     82.26,       362,
     82.28,       330,
      82.3,       337,
     82.32,       363,
     82.34,       355,
     82.36,       353,
     82.38,       316,
      82.4,       327,
     82.42,       329,
     82.44,       310,
     82.46,       349,
     82.48,       317,
      82.5,       315,
     82.52,       337,
     82.54,       332,
     82.56,       330,
     82.58,       328,
      82.6,       319,
     82.62,       343,
     82.64,       353,
     82.66,       299,
     82.68,       322,
      82.7,       326,
     82.72,       343,
     82.74,       321,
     82.76,       332,
     82.78,       320,
      82.8,       325,
     82.82,       316,
     82.84,       330,
     82.86,       329,
     82.88,       327,
      82.9,       310,
     82.92,       350,
     82.94,       309,
     82.96,       304,
     82.98,       328,
        83,       333,
     83.02,       334,
     83.04,       304,
     83.06,       308,
     83.08,       317,
      83.1,       335,
     83.12,       346,
     83.14,       325,
     83.16,       322,
     83.18,       337,
      83.2,       340,
     83.22,       313,
     83.24,       336,
     83.26,       315,
     83.28,       336,
      83.3,       337,
     83.32,       325,
     83.34,       306,
     83.36,       324,
     83.38,       346,
      83.4,       352,
     83.42,       322,
     83.44,       345,
     83.46,       305,
     83.48,       344,
      83.5,       348,
     83.52,       315,
     83.54,       341,
     83.56,       341,
     83.58,       322,
      83.6,       372,
     83.62,       335,
     83.64,       296,
     83.66,       338,
     83.68,       328,
      83.7,       342,
     83.72,       322,
     83.74,       347,
     83.76,       347,
     83.78,       329,
      83.8,       364,
     83.82,       347,
     83.84,       296,
     83.86,       332,
     83.88,       318,
      83.9,       324,
     83.92,       330,
     83.94,       344,
     83.96,       329,
     83.98,       338,
        84,       313,
     84.02,       325,
     84.04,       294,
     84.06,       328,
     84.08,       317,
      84.1,       319,
     84.12,       318,
     84.14,       340,
     84.16,       330,
     84.18,       333,
      84.2,       311,
     84.22,       290,
     84.24,       297,
     84.26,       325,
     84.28,       331,
      84.3,       319,
     84.32,       338,
     84.34,       309,
     84.36,       335,
     84.38,       319,
      84.4,       334,
     84.42,       312,
     84.44,       334,
     84.46,       318,
     84.48,       312,
      84.5,       291,
     84.52,       361,
     84.54,       277,
     84.56,       354,
     84.58,       351,
      84.6,       335,
     84.62,       320,
     84.64,       333,
     84.66,       343,
     84.68,       353,
      84.7,       293,
     84.72,       321,
     84.74,       378,
     84.76,       323,
     84.78,       331,
      84.8,       340,
     84.82,       314,
     84.84,       325,
     84.86,       356,
     84.88,       315,
      84.9,       317,
     84.92,       349,
     84.94,       338,
     84.96,       302,
     84.98,       345,
        85,       330,
     85.02,       322,
     85.04,       316,
     85.06,       337,
     85.08,       330,
      85.1,       329,
     85.12,       340,
     85.14,       372,
     85.16,       327,
     85.18,       309,
      85.2,       310,
     85.22,       307,
     85.24,       315,
     85.26,       305,
     85.28,       346,
      85.3,       339,
     85.32,       319,
     85.34,       321,
     85.36,       368,
     85.38,       329,
      85.4,       342,
     85.42,       367,
     85.44,       331,
     85.46,       356,
     85.48,       292,
      85.5,       308,
     85.52,       341,
     85.54,       326,
     85.56,       341,
     85.58,       303,
      85.6,       313,
     85.62,       291,
     85.64,       320,
     85.66,       360,
     85.68,       320,
      85.7,       316,
     85.72,       341,
     85.74,       354,
     85.76,       334,
     85.78,       357,
      85.8,       366,
     85.82,       316,
     85.84,       322,
     85.86,       318,
     85.88,       304,
      85.9,       331,
     85.92,       305,
     85.94,       354,
     85.96,       329,
     85.98,       345,
        86,       302,
     86.02,       350,
     86.04,       337,
     86.06,       308,
     86.08,       321,
      86.1,       313,
     86.12,       310,
     86.14,       319,
     86.16,       303,
     86.18,       340,
      86.2,       308,
     86.22,       349,
     86.24,       328,
     86.26,       299,
     86.28,       302,
      86.3,       347,
     86.32,       322,
     86.34,       345,
     86.36,       325,
     86.38,       309,
      86.4,       312,
     86.42,       324,
     86.44,       321,
     86.46,       346,
     86.48,       339,
      86.5,       327,
     86.52,       338,
     86.54,       330,
     86.56,       341,
     86.58,       308,
      86.6,       328,
     86.62,       344,
     86.64,       348,
     86.66,       329,
     86.68,       361,
      86.7,       316,
     86.72,       311,
     86.74,       291,
     86.76,       332,
     86.78,       336,
      86.8,       325,
     86.82,       305,
     86.84,       342,
     86.86,       337,
     86.88,       326,
      86.9,       330,
     86.92,       306,
     86.94,       312,
     86.96,       311,
     86.98,       317,
        87,       308,
     87.02,       324,
     87.04,       313,
     87.06,       340,
     87.08,       322,
      87.1,       304,
     87.12,       336,
     87.14,       314,
     87.16,       328,
     87.18,       359,
      87.2,       311,
     87.22,       340,
     87.24,       334,
     87.26,       317,
     87.28,       332,
      87.3,       346,
     87.32,       300,
     87.34,       295,
     87.36,       332,
     87.38,       305,
      87.4,       331,
     87.42,       339,
     87.44,       336,
     87.46,       318,
     87.48,       337,
      87.5,       350,
     87.52,       301,
     87.54,       337,
     87.56,       315,
     87.58,       313,
      87.6,       317,
     87.62,       321,
     87.64,       335,
     87.66,       352,
     87.68,       337,
      87.7,       309,
     87.72,       322,
     87.74,       335,
     87.76,       339,
     87.78,       330,
      87.8,       312,
     87.82,       314,
     87.84,       321,
     87.86,       309,
     87.88,       308,
      87.9,       309,
     87.92,       327,
     87.94,       314,
     87.96,       327,
     87.98,       336,
        88,       366,
     88.02,       308,
     88.04,       363,
     88.06,       308,
     88.08,       346,
      88.1,       341,
     88.12,       333,
     88.14,       367,
     88.16,       329,
     88.18,       360,
      88.2,       326,
     88.22,       345,
     88.24,       342,
     88.26,       331,
     88.28,       350,
      88.3,       329,
     88.32,       343,
     88.34,       285,
     88.36,       313,
     88.38,       328,
      88.4,       309,
     88.42,       326,
     88.44,       337,
     88.46,       358,
     88.48,       326,
      88.5,       318,
     88.52,       318,
     88.54,       326,
     88.56,       317,
     88.58,       326,
      88.6,       359,
     88.62,       364,
     88.64,       332,
     88.66,       342,
     88.68,       331,
      88.7,       329,
     88.72,       312,
     88.74,       373,
     88.76,       371,
     88.78,       342,
      88.8,       345,
     88.82,       323,
     88.84,       323,
     88.86,       357,
     88.88,       332,
      88.9,       322,
     88.92,       380,
     88.94,       343,
     88.96,       322,
     88.98,       359,
        89,       340,
     89.02,       340,
     89.04,       349,
     89.06,       367,
     89.08,       336,
      89.1,       315,
     89.12,       346,
     89.14,       308,
     89.16,       375,
     89.18,       347,
      89.2,       395,
     89.22,       347,
     89.24,       391,
     89.26,       381,
     89.28,       362,
      89.3,       368,
     89.32,       369,
     89.34,       375,
     89.36,       356,
     89.38,       383,
      89.4,       398,
     89.42,       374,
     89.44,       421,
     89.46,       384,
     89.48,       428,
      89.5,       383,
     89.52,       432,
     89.54,       415,
     89.56,       428,
     89.58,       461,
      89.6,       503,
     89.62,       433,
     89.64,       480,
     89.66,       504,
     89.68,       494,
      89.7,       517,
     89.72,       533,
     89.74,       592,
     89.76,       657,
     89.78,       664,
      89.8,       652,
     89.82,       698,
     89.84,       789,
     89.86,       782,
     89.88,       877,
      89.9,       920,
     89.92,      1031,
     89.94,      1149,
     89.96,      1124,
     89.98,      1229,
        90,      1220,
     90.02,      1275,
     90.04,      1221,
     90.06,      1221,
     90.08,      1234,
      90.1,      1177,
     90.12,      1077,
     90.14,      1058,
     90.16,      1023,
     90.18,      1029,
      90.2,      1019,
     90.22,      1046,
     90.24,       982,
     90.26,       913,
     90.28,       962,
      90.3,       938,
     90.32,       928,
     90.34,       888,
     90.36,       841,
     90.38,       759,
      90.4,       760,
     90.42,       693,
     90.44,       676,
     90.46,       611,
     90.48,       602,
      90.5,       551,
     90.52,       557,
     90.54,       519,
     90.56,       539,
     90.58,       548,
      90.6,       494,
     90.62,       488,
     90.64,       425,
     90.66,       446,
     90.68,       386,
      90.7,       472,
     90.72,       411,
     90.74,       362,
     90.76,       409,
     90.78,       424,
      90.8,       385,
     90.82,       354,
     90.84,       373,
     90.86,       357,
     90.88,       395,
      90.9,       415,
     90.92,       360,
     90.94,       372,
     90.96,       419,
     90.98,       372,
        91,       326,
     91.02,       362,
     91.04,       397,
     91.06,       347,
     91.08,       364,
      91.1,       357,
     91.12,       349,
     91.14,       347,
     91.16,       353,
     91.18,       345,
      91.2,       325,
     91.22,       337,
     91.24,       359,
     91.26,       354,
     91.28,       337,
      91.3,       316,
     91.32,       348,
     91.34,       343,
     91.36,       366,
     91.38,       319,
      91.4,       333,
     91.42,       310,
     91.44,       368,
     91.46,       318,
     91.48,       314,
      91.5,       362,
     91.52,       315,
     91.54,       357,
     91.56,       306,
     91.58,       341,
      91.6,       321,
     91.62,       382,
     91.64,       350,
     91.66,       321,
     91.68,       339,
      91.7,       329,
     91.72,       329,
     91.74,       331,
     91.76,       311,
     91.78,       327,
      91.8,       341,
     91.82,       353,
     91.84,       323,
     91.86,       316,
     91.88,       317,
      91.9,       337,
     91.92,       304,
     91.94,       303,
     91.96,       345,
     91.98,       343,
        92,       333,
     92.02,       337,
     92.04,       315,
     92.06,       329,
     92.08,       339,
      92.1,       326,
     92.12,       319,
     92.14,       314,
     92.16,       345,
     92.18,       330,
      92.2,       340,
     92.22,       351,
     92.24,       343,
     92.26,       356,
     92.28,       332,
      92.3,       353,
     92.32,       343,
     92.34,       332,
     92.36,       324,
     92.38,       315,
      92.4,       331,
     92.42,       331,
     92.44,       331,
     92.46,       333,
     92.48,       301,
      92.5,       334,
     92.52,       336,
     92.54,       335,
     92.56,       354,
     92.58,       327,
      92.6,       342,
     92.62,       313,
     92.64,       311,
     92.66,       323,
     92.68,       333,
      92.7,       305,
     92.72,       320,
     92.74,       330,
     92.76,       319,
     92.78,       362,
      92.8,       339,
     92.82,       326,
     92.84,       333,
     92.86,       345,
     92.88,       306,
      92.9,       334,
     92.92,       380,
     92.94,       338,
     92.96,       347,
     92.98,       331,
        93,       341,
     93.02,       321,
     93.04,       315,
     93.06,       356,
     93.08,       357,
      93.1,       344,
     93.12,       347,
     93.14,       328,
     93.16,       332,
     93.18,       321,
      93.2,       301,
     93.22,       305,
     93.24,       331,
     93.26,       321,
     93.28,       326,
      93.3,       298,
     93.32,       347,
     93.34,       365,
     93.36,       343,
     93.38,       353,
      93.4,       323,
     93.42,       313,
     93.44,       312,
     93.46,       341,
     93.48,       323,
      93.5,       333,
     93.52,       313,
     93.54,       362,
     93.56,       316,
     93.58,       349,
      93.6,       311,
     93.62,       306,
     93.64,       364,
     93.66,       333,
     93.68,       360,
      93.7,       329,
     93.72,       339,
     93.74,       369,
     93.76,       331,
     93.78,       350,
      93.8,       324,
     93.82,       363,
     93.84,       337,
     93.86,       315,
     93.88,       351,
      93.9,       315,
     93.92,       290,
     93.94,       347,
     93.96,       322,
     93.98,       325,
        94,       307,
     94.02,       302,
     94.04,       336,
     94.06,       326,
     94.08,       376,
      94.1,       333,
     94.12,       339,
     94.14,       323,
     94.16,       317,
     94.18,       313,
      94.2,       335,
     94.22,       316,
     94.24,       348,
     94.26,       307,
     94.28,       310,
      94.3,       347,
     94.32,       333,
     94.34,       346,
     94.36,       314,
     94.38,       354,
      94.4,       339,
     94.42,       303,
     94.44,       356,
     94.46,       345,
     94.48,       312,
      94.5,       324,
     94.52,       330,
     94.54,       356,
     94.56,       297,
     94.58,       348,
      94.6,       323,
     94.62,       331,
     94.64,       335,
     94.66,       337,
     94.68,       345,
      94.7,       332,
     94.72,       352,
     94.74,       352,
     94.76,       344,
     94.78,       373,
      94.8,       372,
     94.82,       357,
     94.84,       366,
     94.86,       384,
     94.88,       345,
      94.9,       352,
     94.92,       378,
     94.94,       390,
     94.96,       352,
     94.98,       438,
        95,       409,
     95.02,       465,
     95.04,       459,
     95.06,       489,
     95.08,       469,
      95.1,       495,
     95.12,       536,
     95.14,       542,
     95.16,       578,
     95.18,       646,
      95.2,       587,
     95.22,       696,
     95.24,       628,
     95.26,       630,
     95.28,       637,
      95.3,       553,
     95.32,       594,
     95.34,       528,
     95.36,       535,
     95.38,       507,
      95.4,       473,
     95.42,       522,
     95.44,       520,
     95.46,       523,
     95.48,       522,
      95.5,       495,
     95.52,       509,
     95.54,       511,
     95.56,       485,
     95.58,       497,
      95.6,       463,
     95.62,       393,
     95.64,       439,
     95.66,       439,
     95.68,       436,
      95.7,       450,
     95.72,       388,
     95.74,       450,
     95.76,       387,
     95.78,       360,
      95.8,       357,
     95.82,       374,
     95.84,       343,
     95.86,       355,
     95.88,       354,
      95.9,       317,
     95.92,       373,
     95.94,       334,
     95.96,       323,
     95.98,       374,
        96,       366,
     96.02,       346,
     96.04,       311,
     96.06,       321,
     96.08,       344,
      96.1,       320,
     96.12,       306,
     96.14,       364,
     96.16,       345,
     96.18,       327,
      96.2,       326,
     96.22,       314,
     96.24,       334,
     96.26,       347,
     96.28,       321,
      96.3,       351,
     96.32,       326,
     96.34,       339,
     96.36,       319,
     96.38,       338,
      96.4,       338,
     96.42,       346,
     96.44,       319,
     96.46,       317,
     96.48,       333,
      96.5,       322,
     96.52,       353,
     96.54,       303,
     96.56,       349,
     96.58,       364,
      96.6,       323,
     96.62,       341,
     96.64,       305,
     96.66,       348,
     96.68,       358,
      96.7,       341,
     96.72,       329,
     96.74,       321,
     96.76,       339,
     96.78,       334,
      96.8,       327,
     96.82,       327,
     96.84,       301,
     96.86,       344,
     96.88,       347,
      96.9,       322,
     96.92,       331,
     96.94,       334,
     96.96,       342,
     96.98,       334,
        97,       345,
     97.02,       321,
     97.04,       323,
     97.06,       344,
     97.08,       335,
      97.1,       335,
     97.12,       364,
     97.14,       337,
     97.16,       305,
     97.18,       338,
      97.2,       321,
     97.22,       325,
     97.24,       316,
     97.26,       314,
     97.28,       322,
      97.3,       320,
     97.32,       324,
     97.34,       313,
     97.36,       345,
     97.38,       360,
      97.4,       343,
     97.42,       352,
     97.44,       330,
     97.46,       300,
     97.48,       314,
      97.5,       338,
     97.52,       339,
     97.54,       320,
     97.56,       342,
     97.58,       339,
      97.6,       300,
     97.62,       326,
     97.64,       325,
     97.66,       316,
     97.68,       356,
      97.7,       336,
     97.72,       308,
     97.74,       364,
     97.76,       342,
     97.78,       338,
      97.8,       327,
     97.82,       340,
     97.84,       344,
     97.86,       323,
     97.88,       306,
      97.9,       314,
     97.92,       318,
     97.94,       324,
     97.96,       332,
     97.98,       325,
        98,       343,
     98.02,       322,
     98.04,       351,
     98.06,       338,
     98.08,       332,
      98.1,       322,
     98.12,       325,
     98.14,       327,
     98.16,       316,
     98.18,       298,
      98.2,       332,
     98.22,       327,
     98.24,       346,
     98.26,       345,
     98.28,       343,
      98.3,       340,
     98.32,       349,
     98.34,       334,
     98.36,       307,
     98.38,       319,
      98.4,       329,
     98.42,       317,
     98.44,       344,
     98.46,       335,
     98.48,       364,
      98.5,       344,
     98.52,       316,
     98.54,       338,
     98.56,       348,
     98.58,       315,
      98.6,       318,
     98.62,       332,
     98.64,       291,
     98.66,       302,
     98.68,       349,
      98.7,       353,
     98.72,       333,
     98.74,       341,
     98.76,       343,
     98.78,       347,
      98.8,       312,
     98.82,       333,
     98.84,       307,
     98.86,       361,
     98.88,       348,
      98.9,       348,
     98.92,       374,
     98.94,       331,
     98.96,       331,
     98.98,       356,
        99,       335,
     99.02,       312,
     99.04,       346,
     99.06,       324,
     99.08,       332,
      99.1,       326,
     99.12,       322,
     99.14,       317,
     99.16,       317,
     99.18,       346,
      99.2,       309,
     99.22,       343,
     99.24,       299,
     99.26,       352,
     99.28,       309,
      99.3,       315,
     99.32,       335,
     99.34,       346,
     99.36,       319,
     99.38,       319,
      99.4,       301,
     99.42,       335,
     99.44,       294,
     99.46,       351,
     99.48,       349,
      99.5,       360,
     99.52,       312,
     99.54,       289,
     99.56,       324,
     99.58,       335,
      99.6,       336,
     99.62,       347,
     99.64,       360,
     99.66,       376,
     99.68,       307,
      99.7,       366,
     99.72,       341,
     99.74,       320,
     99.76,       318,
     99.78,       324,
      99.8,       317,
     99.82,       316,
     99.84,       309,
     99.86,       361,
     99.88,       297,
      99.9,       335,
     99.92,       331,
     99.94,       340,
     99.96,       306,
     99.98,       319,
       100,       331,
