;RAW4.00
[RawHeader]
Date=11/08/2019
EstimatedTotalTime=0
FurtherDQLReading=0
HardwareIndicator=65519
MeasuredTotalTime=0
MeasurementFlag=1
NumberOfMeasuredRanges=1
NumberOfRanges=1
Time=11:09:07

[HardwareConfiguration]
AbsorptionFactor=0
ActivateAbsorber=0
Alpha1=1.5406
Alpha2=1.54439
AlphaAverage=1.54184
AlphaRatio=0.5
Analyzer=1
Anode=Cu
AntiScatteringSlit=0.15
BeamOpticsFlags=5
Beta=1.39222
BetaRelativeIntensity=0
DeactivateAbsorber=0
DetectorSlit=1
DivergenceSlit=0.15
GoniometerControl=9999
GoniometerDiameter=435
GoniometerModel=520
GoniometerStage=0
Monochromator=0
NearSampleSlit=1
PrimarySollerSlit=1
SampleChanger=0
SecondSollerSlit=2
SynchronousAxis=0
ThinFilmAttachment=0.46
WaveUnit=A

[VarInfo]
Type=OSUSER
Flags=0
Value=mselab

[VarInfo]
Type=USER
Flags=0
Value=XRAYUSER

[VarInfo]
Type=SITE
Flags=0
Value=171

[VarInfo]
Type=CREATOR
Flags=0
Value=XRD Commander

[RangeHeader]
ActuallyUsedLambda=1.5406
AdditionalDetectorMask=0
DataRecordLength=4
DelayTime=0
DisplayPlaneNumber=0
EstimatedScanTime=0
ExtraParametersMask=0
GeneratorCurrent=9999
GeneratorVoltage=9999
Increment=0.02
Increment3=0
NumberOfCompletedData=3001
NumberOfCounts=1
NumberOfDetectors=1
NumberOfDrives=2
NumberOfEncoderDrives=0
NumberOfMeasuredData=3001
NumberOfVaryingParameters=0
RangeStartTime=1320913702
RotationSpeed=0
ScanMode=0
ScanType=Locked Coupled
SimulatedMeasConditions=0
SlitChangerIn=9999
SmootingWidth=0
Start=40
Steps=3001
SynchronousRotation=0
Time=1

[Drive]
DriveFlags=1
DriveName=Theta
DriveNumber=1
DriveOffset=0
OffsetIndex=0
OscillationAmplitude=0
OscillationSpeed=0
StartPosition=20

[Drive]
DriveFlags=1
DriveName=2Theta
DriveNumber=2
DriveOffset=0
OffsetIndex=0
OscillationAmplitude=0
OscillationSpeed=0
StartPosition=40

[Detector]
AmplifierGain=0
ConstantDeadTime=0
DetectorFlags=256
DetectorName=Detector 1
DetectorNumber=1
DetectorType=1
Discriminator1LowerLevel=0
Discriminator1WindowWidth=0
Discriminator2LowerLevel=0
Discriminator2WindowWidth=0
HighVoltage=0
PileUpTime=0
PulseShaping=9999
TTLDetectorName=

[Data]
     Angle, Det1Disc1,
        40,        30,
     40.02,        18,
     40.04,        31,
     40.06,        23,
     40.08,        25,
      40.1,        29,
     40.12,        24,
     40.14,        27,
     40.16,        25,
     40.18,        34,
      40.2,        35,
     40.22,        27,
     40.24,        29,
     40.26,        27,
     40.28,        21,
      40.3,        36,
     40.32,        22,
     40.34,        37,
     40.36,        29,
     40.38,        38,
      40.4,        33,
     40.42,        30,
     40.44,        28,
     40.46,        30,
     40.48,        28,
      40.5,        29,
     40.52,        30,
     40.54,        36,
     40.56,        38,
     40.58,        39,
      40.6,        29,
     40.62,        23,
     40.64,        20,
     40.66,        26,
     40.68,        29,
      40.7,        28,
     40.72,        29,
     40.74,        38,
     40.76,        24,
     40.78,        30,
      40.8,        27,
     40.82,        21,
     40.84,        29,
     40.86,        31,
     40.88,        26,
      40.9,        31,
     40.92,        29,
     40.94,        24,
     40.96,        32,
     40.98,        29,
        41,        32,
     41.02,        24,
     41.04,        24,
     41.06,        36,
     41.08,        39,
      41.1,        27,
     41.12,        30,
     41.14,        29,
     41.16,        27,
     41.18,        26,
      41.2,        25,
     41.22,        24,
     41.24,        20,
     41.26,        29,
     41.28,        27,
      41.3,        27,
     41.32,        33,
     41.34,        31,
     41.36,        38,
     41.38,        34,
      41.4,        25,
     41.42,        27,
     41.44,        26,
     41.46,        23,
     41.48,        24,
      41.5,        31,
     41.52,        26,
     41.54,        30,
     41.56,        37,
     41.58,        31,
      41.6,        25,
     41.62,        28,
     41.64,        31,
     41.66,        26,
     41.68,        31,
      41.7,        33,
     41.72,        41,
     41.74,        26,
     41.76,        20,
     41.78,        27,
      41.8,        18,
     41.82,        29,
     41.84,        28,
     41.86,        28,
     41.88,        26,
      41.9,        28,
     41.92,        19,
     41.94,        21,
     41.96,        35,
     41.98,        22,
        42,        34,
     42.02,        19,
     42.04,        34,
     42.06,        23,
     42.08,        32,
      42.1,        32,
     42.12,        43,
     42.14,        31,
     42.16,        38,
     42.18,        41,
      42.2,        27,
     42.22,        22,
     42.24,        24,
     42.26,        37,
     42.28,        30,
      42.3,        27,
     42.32,        41,
     42.34,        30,
     42.36,        28,
     42.38,        35,
      42.4,        25,
     42.42,        31,
     42.44,        31,
     42.46,        32,
     42.48,        27,
      42.5,        32,
     42.52,        35,
     42.54,        25,
     42.56,        37,
     42.58,        35,
      42.6,        21,
     42.62,        44,
     42.64,        49,
     42.66,        21,
     42.68,        27,
      42.7,        26,
     42.72,        33,
     42.74,        29,
     42.76,        35,
     42.78,        37,
      42.8,        34,
     42.82,        28,
     42.84,        24,
     42.86,        27,
     42.88,        40,
      42.9,        51,
     42.92,        35,
     42.94,        30,
     42.96,        35,
     42.98,        33,
        43,        36,
     43.02,        31,
     43.04,        38,
     43.06,        44,
     43.08,        35,
      43.1,        25,
     43.12,        26,
     43.14,        36,
     43.16,        30,
     43.18,        34,
      43.2,        30,
     43.22,        29,
     43.24,        36,
     43.26,        41,
     43.28,        36,
      43.3,        41,
     43.32,        43,
     43.34,        34,
     43.36,        32,
     43.38,        28,
      43.4,        50,
     43.42,        44,
     43.44,        46,
     43.46,        46,
     43.48,        27,
      43.5,        39,
     43.52,        32,
     43.54,        35,
     43.56,        51,
     43.58,        34,
      43.6,        43,
     43.62,        45,
     43.64,        45,
     43.66,        39,
     43.68,        49,
      43.7,        39,
     43.72,        45,
     43.74,        54,
     43.76,        52,
     43.78,        60,
      43.8,        60,
     43.82,        54,
     43.84,        65,
     43.86,        61,
     43.88,        61,
      43.9,        81,
     43.92,        77,
     43.94,        82,
     43.96,        70,
     43.98,        79,
        44,        93,
     44.02,       112,
     44.04,       121,
     44.06,       146,
     44.08,       151,
      44.1,       169,
     44.12,       188,
     44.14,       211,
     44.16,       225,
     44.18,       299,
      44.2,       318,
     44.22,       344,
     44.24,       405,
     44.26,       429,
     44.28,       491,
      44.3,       550,
     44.32,       619,
     44.34,       627,
     44.36,       703,
     44.38,       719,
      44.4,       757,
     44.42,       793,
     44.44,       811,
     44.46,       835,
     44.48,       822,
      44.5,       815,
     44.52,       810,
     44.54,       788,
     44.56,       762,
     44.58,       725,
      44.6,       736,
     44.62,       725,
     44.64,       646,
     44.66,       639,
     44.68,       568,
      44.7,       507,
     44.72,       497,
     44.74,       464,
     44.76,       413,
     44.78,       352,
      44.8,       309,
     44.82,       302,
     44.84,       249,
     44.86,       220,
     44.88,       199,
      44.9,       169,
     44.92,       132,
     44.94,       134,
     44.96,       120,
     44.98,       124,
        45,       106,
     45.02,        73,
     45.04,        92,
     45.06,        93,
     45.08,        74,
      45.1,        71,
     45.12,        62,
     45.14,        52,
     45.16,        63,
     45.18,        52,
      45.2,        46,
     45.22,        55,
     45.24,        50,
     45.26,        41,
     45.28,        44,
      45.3,        48,
     45.32,        35,
     45.34,        53,
     45.36,        46,
     45.38,        37,
      45.4,        43,
     45.42,        46,
     45.44,        32,
     45.46,        31,
     45.48,        35,
      45.5,        37,
     45.52,        53,
     45.54,        32,
     45.56,        36,
     45.58,        35,
      45.6,        39,
     45.62,        36,
     45.64,        30,
     45.66,        28,
     45.68,        34,
      45.7,        34,
     45.72,        36,
     45.74,        48,
     45.76,        34,
     45.78,        33,
      45.8,        39,
     45.82,        31,
     45.84,        36,
     45.86,        25,
     45.88,        32,
      45.9,        35,
     45.92,        23,
     45.94,        28,
     45.96,        39,
     45.98,        21,
        46,        39,
     46.02,        31,
     46.04,        28,
     46.06,        37,
     46.08,        31,
      46.1,        35,
     46.12,        28,
     46.14,        35,
     46.16,        26,
     46.18,        33,
      46.2,        29,
     46.22,        33,
     46.24,        27,
     46.26,        30,
     46.28,        30,
      46.3,        25,
     46.32,        23,
     46.34,        29,
     46.36,        33,
     46.38,        27,
      46.4,        32,
     46.42,        44,
     46.44,        43,
     46.46,        27,
     46.48,        33,
      46.5,        27,
     46.52,        31,
     46.54,        37,
     46.56,        18,
     46.58,        28,
      46.6,        28,
     46.62,        41,
     46.64,        20,
     46.66,        28,
     46.68,        22,
      46.7,        31,
     46.72,        27,
     46.74,        17,
     46.76,        28,
     46.78,        22,
      46.8,        23,
     46.82,        26,
     46.84,        22,
     46.86,        28,
     46.88,        38,
      46.9,        32,
     46.92,        26,
     46.94,        23,
     46.96,        24,
     46.98,        40,
        47,        28,
     47.02,        33,
     47.04,        25,
     47.06,        30,
     47.08,        27,
      47.1,        38,
     47.12,        24,
     47.14,        29,
     47.16,        19,
     47.18,        33,
      47.2,        35,
     47.22,        22,
     47.24,        26,
     47.26,        34,
     47.28,        31,
      47.3,        18,
     47.32,        25,
     47.34,        20,
     47.36,        30,
     47.38,        24,
      47.4,        31,
     47.42,        28,
     47.44,        21,
     47.46,        26,
     47.48,        41,
      47.5,        27,
     47.52,        30,
     47.54,        24,
     47.56,        22,
     47.58,        29,
      47.6,        26,
     47.62,        29,
     47.64,        26,
     47.66,        27,
     47.68,        28,
      47.7,        36,
     47.72,        19,
     47.74,        26,
     47.76,        19,
     47.78,        24,
      47.8,        24,
     47.82,        26,
     47.84,        25,
     47.86,        29,
     47.88,        25,
      47.9,        23,
     47.92,        20,
     47.94,        19,
     47.96,        21,
     47.98,        34,
        48,        29,
     48.02,        23,
     48.04,        30,
     48.06,        18,
     48.08,        27,
      48.1,        21,
     48.12,        25,
     48.14,        25,
     48.16,        28,
     48.18,        28,
      48.2,        26,
     48.22,        33,
     48.24,        21,
     48.26,        27,
     48.28,        24,
      48.3,        22,
     48.32,        22,
     48.34,        21,
     48.36,        19,
     48.38,        24,
      48.4,        29,
     48.42,        26,
     48.44,        18,
     48.46,        33,
     48.48,        32,
      48.5,        26,
     48.52,        23,
     48.54,        15,
     48.56,        26,
     48.58,        33,
      48.6,        23,
     48.62,        24,
     48.64,        28,
     48.66,        28,
     48.68,        26,
      48.7,        28,
     48.72,        27,
     48.74,        29,
     48.76,        26,
     48.78,        20,
      48.8,        20,
     48.82,        21,
     48.84,        24,
     48.86,        31,
     48.88,        24,
      48.9,        34,
     48.92,        26,
     48.94,        25,
     48.96,        25,
     48.98,        27,
        49,        18,
     49.02,        27,
     49.04,        20,
     49.06,        25,
     49.08,        36,
      49.1,        31,
     49.12,        19,
     49.14,        19,
     49.16,        31,
     49.18,        25,
      49.2,        20,
     49.22,        32,
     49.24,        19,
     49.26,        35,
     49.28,        20,
      49.3,        33,
     49.32,        28,
     49.34,        25,
     49.36,        20,
     49.38,        32,
      49.4,        30,
     49.42,        21,
     49.44,        38,
     49.46,        27,
     49.48,        26,
      49.5,        31,
     49.52,        27,
     49.54,        32,
     49.56,        35,
     49.58,        35,
      49.6,        32,
     49.62,        30,
     49.64,        22,
     49.66,        26,
     49.68,        31,
      49.7,        24,
     49.72,        32,
     49.74,        23,
     49.76,        25,
     49.78,        27,
      49.8,        20,
     49.82,        31,
     49.84,        23,
     49.86,        24,
     49.88,        25,
      49.9,        25,
     49.92,        22,
     49.94,        22,
     49.96,        27,
     49.98,        23,
        50,        19,
     50.02,        30,
     50.04,        20,
     50.06,        20,
     50.08,        26,
      50.1,        26,
     50.12,        30,
     50.14,        26,
     50.16,        26,
     50.18,        21,
      50.2,        21,
     50.22,        19,
     50.24,        32,
     50.26,        22,
     50.28,        25,
      50.3,        31,
     50.32,        27,
     50.34,        35,
     50.36,        34,
     50.38,        22,
      50.4,        30,
     50.42,        20,
     50.44,        26,
     50.46,        17,
     50.48,        26,
      50.5,        27,
     50.52,        25,
     50.54,        30,
     50.56,        19,
     50.58,        24,
      50.6,        29,
     50.62,        27,
     50.64,        21,
     50.66,        24,
     50.68,        32,
      50.7,        27,
     50.72,        30,
     50.74,        18,
     50.76,        21,
     50.78,        22,
      50.8,        31,
     50.82,        27,
     50.84,        16,
     50.86,        19,
     50.88,        25,
      50.9,        24,
     50.92,        26,
     50.94,        31,
     50.96,        32,
     50.98,        12,
        51,        31,
     51.02,        22,
     51.04,        25,
     51.06,        28,
     51.08,        24,
      51.1,        21,
     51.12,        28,
     51.14,        27,
     51.16,        23,
     51.18,        22,
      51.2,        31,
     51.22,        27,
     51.24,        26,
     51.26,        23,
     51.28,        24,
      51.3,        25,
     51.32,        37,
     51.34,        16,
     51.36,        27,
     51.38,        29,
      51.4,        25,
     51.42,        19,
     51.44,        17,
     51.46,        21,
     51.48,        29,
      51.5,        21,
     51.52,        22,
     51.54,        31,
     51.56,        15,
     51.58,        25,
      51.6,        25,
     51.62,        18,
     51.64,        22,
     51.66,        22,
     51.68,        34,
      51.7,        28,
     51.72,        24,
     51.74,        31,
     51.76,        29,
     51.78,        29,
      51.8,        28,
     51.82,        32,
     51.84,        17,
     51.86,        17,
     51.88,        20,
      51.9,        23,
     51.92,        18,
     51.94,        19,
     51.96,        17,
     51.98,        33,
        52,        18,
     52.02,        30,
     52.04,        20,
     52.06,        26,
     52.08,        28,
      52.1,        36,
     52.12,        31,
     52.14,        22,
     52.16,        30,
     52.18,        26,
      52.2,        18,
     52.22,        19,
     52.24,        20,
     52.26,        24,
     52.28,        28,
      52.3,        27,
     52.32,        35,
     52.34,        28,
     52.36,        17,
     52.38,        32,
      52.4,        27,
     52.42,        18,
     52.44,        31,
     52.46,        30,
     52.48,        31,
      52.5,        25,
     52.52,        20,
     52.54,        28,
     52.56,        23,
     52.58,        20,
      52.6,        25,
     52.62,        23,
     52.64,        29,
     52.66,        35,
     52.68,        18,
      52.7,        20,
     52.72,        25,
     52.74,        34,
     52.76,        23,
     52.78,        19,
      52.8,        35,
     52.82,        25,
     52.84,        27,
     52.86,        31,
     52.88,        22,
      52.9,        15,
     52.92,        18,
     52.94,        17,
     52.96,        31,
     52.98,        17,
        53,        23,
     53.02,        24,
     53.04,        23,
     53.06,        27,
     53.08,        21,
      53.1,        26,
     53.12,        25,
     53.14,        34,
     53.16,        24,
     53.18,        33,
      53.2,        28,
     53.22,        21,
     53.24,        18,
     53.26,        24,
     53.28,        24,
      53.3,        20,
     53.32,        21,
     53.34,        27,
     53.36,        20,
     53.38,        14,
      53.4,        30,
     53.42,        24,
     53.44,        26,
     53.46,        29,
     53.48,        20,
      53.5,        28,
     53.52,        13,
     53.54,        20,
     53.56,        25,
     53.58,        24,
      53.6,        15,
     53.62,        25,
     53.64,        21,
     53.66,        27,
     53.68,        20,
      53.7,        31,
     53.72,        16,
     53.74,        16,
     53.76,        16,
     53.78,        17,
      53.8,        28,
     53.82,        17,
     53.84,        29,
     53.86,        29,
     53.88,        29,
      53.9,        20,
     53.92,        27,
     53.94,        21,
     53.96,        22,
     53.98,        20,
        54,        17,
     54.02,        19,
     54.04,        29,
     54.06,        15,
     54.08,        24,
      54.1,        22,
     54.12,        34,
     54.14,        27,
     54.16,        25,
     54.18,        19,
      54.2,        31,
     54.22,        28,
     54.24,        20,
     54.26,        31,
     54.28,        22,
      54.3,        27,
     54.32,        21,
     54.34,        23,
     54.36,        22,
     54.38,        26,
      54.4,        24,
     54.42,        30,
     54.44,        25,
     54.46,        18,
     54.48,        13,
      54.5,        29,
     54.52,        17,
     54.54,        20,
     54.56,        20,
     54.58,        22,
      54.6,        26,
     54.62,        26,
     54.64,        22,
     54.66,        16,
     54.68,        31,
      54.7,        21,
     54.72,        34,
     54.74,        20,
     54.76,        29,
     54.78,        18,
      54.8,        16,
     54.82,        23,
     54.84,        28,
     54.86,        22,
     54.88,        24,
      54.9,        26,
     54.92,        30,
     54.94,        26,
     54.96,        26,
     54.98,        20,
        55,        25,
     55.02,        33,
     55.04,        26,
     55.06,        31,
     55.08,        15,
      55.1,        24,
     55.12,        29,
     55.14,        22,
     55.16,        21,
     55.18,        18,
      55.2,        26,
     55.22,        23,
     55.24,        22,
     55.26,        24,
     55.28,        21,
      55.3,        17,
     55.32,        22,
     55.34,        21,
     55.36,        21,
     55.38,        22,
      55.4,        34,
     55.42,        20,
     55.44,        19,
     55.46,        15,
     55.48,        20,
      55.5,        20,
     55.52,        22,
     55.54,        12,
     55.56,        27,
     55.58,        24,
      55.6,        23,
     55.62,        27,
     55.64,        29,
     55.66,        23,
     55.68,        26,
      55.7,        16,
     55.72,        26,
     55.74,        26,
     55.76,        21,
     55.78,        20,
      55.8,        17,
     55.82,        28,
     55.84,        19,
     55.86,        29,
     55.88,        26,
      55.9,        26,
     55.92,        26,
     55.94,        22,
     55.96,        34,
     55.98,        20,
        56,        26,
     56.02,        17,
     56.04,        24,
     56.06,        24,
     56.08,        15,
      56.1,        26,
     56.12,        25,
     56.14,        25,
     56.16,        24,
     56.18,        27,
      56.2,        19,
     56.22,        26,
     56.24,        29,
     56.26,        19,
     56.28,        27,
      56.3,        21,
     56.32,        36,
     56.34,        34,
     56.36,        29,
     56.38,        27,
      56.4,        28,
     56.42,        29,
     56.44,        22,
     56.46,        30,
     56.48,        26,
      56.5,        25,
     56.52,        26,
     56.54,        31,
     56.56,        13,
     56.58,        25,
      56.6,        17,
     56.62,        26,
     56.64,        24,
     56.66,        22,
     56.68,        33,
      56.7,        17,
     56.72,        28,
     56.74,        24,
     56.76,        28,
     56.78,        19,
      56.8,        24,
     56.82,        31,
     56.84,        34,
     56.86,        24,
     56.88,        19,
      56.9,        29,
     56.92,        29,
     56.94,        22,
     56.96,        23,
     56.98,        17,
        57,        15,
     57.02,        22,
     57.04,        26,
     57.06,        28,
     57.08,        25,
      57.1,        35,
     57.12,        19,
     57.14,        18,
     57.16,        24,
     57.18,        22,
      57.2,        23,
     57.22,        27,
     57.24,        30,
     57.26,        25,
     57.28,        23,
      57.3,        23,
     57.32,        24,
     57.34,        28,
     57.36,        33,
     57.38,        27,
      57.4,        22,
     57.42,        19,
     57.44,        24,
     57.46,        20,
     57.48,        24,
      57.5,        23,
     57.52,        22,
     57.54,        18,
     57.56,        27,
     57.58,        33,
      57.6,        37,
     57.62,        23,
     57.64,        24,
     57.66,        19,
     57.68,        27,
      57.7,        22,
     57.72,        28,
     57.74,        24,
     57.76,        17,
     57.78,        23,
      57.8,        25,
     57.82,        22,
     57.84,        22,
     57.86,        24,
     57.88,        31,
      57.9,        24,
     57.92,        20,
     57.94,        25,
     57.96,        20,
     57.98,        27,
        58,        17,
     58.02,        23,
     58.04,        19,
     58.06,        24,
     58.08,        35,
      58.1,        22,
     58.12,        28,
     58.14,        20,
     58.16,        34,
     58.18,        23,
      58.2,        26,
     58.22,        20,
     58.24,        29,
     58.26,        27,
     58.28,        25,
      58.3,        19,
     58.32,        23,
     58.34,        32,
     58.36,        29,
     58.38,        29,
      58.4,        14,
     58.42,        29,
     58.44,        31,
     58.46,        29,
     58.48,        15,
      58.5,        30,
     58.52,        22,
     58.54,        22,
     58.56,        19,
     58.58,        33,
      58.6,        24,
     58.62,        27,
     58.64,        29,
     58.66,        27,
     58.68,        33,
      58.7,        24,
     58.72,        26,
     58.74,        16,
     58.76,        23,
     58.78,        31,
      58.8,        34,
     58.82,        25,
     58.84,        25,
     58.86,        21,
     58.88,        21,
      58.9,        20,
     58.92,        23,
     58.94,        24,
     58.96,        34,
     58.98,        17,
        59,        24,
     59.02,        18,
     59.04,        22,
     59.06,        27,
     59.08,        19,
      59.1,        37,
     59.12,        26,
     59.14,        25,
     59.16,        17,
     59.18,        29,
      59.2,        16,
     59.22,        21,
     59.24,        16,
     59.26,        26,
     59.28,        21,
      59.3,        25,
     59.32,        24,
     59.34,        22,
     59.36,        22,
     59.38,        36,
      59.4,        27,
     59.42,        22,
     59.44,        20,
     59.46,        28,
     59.48,        25,
      59.5,        29,
     59.52,        22,
     59.54,        21,
     59.56,        24,
     59.58,        23,
      59.6,        27,
     59.62,        26,
     59.64,        18,
     59.66,        26,
     59.68,        21,
      59.7,        22,
     59.72,        15,
     59.74,        18,
     59.76,        30,
     59.78,        33,
      59.8,        23,
     59.82,        32,
     59.84,        30,
     59.86,        25,
     59.88,        26,
      59.9,        21,
     59.92,        29,
     59.94,        24,
     59.96,        29,
     59.98,        18,
        60,        30,
     60.02,        27,
     60.04,        25,
     60.06,        24,
     60.08,        25,
      60.1,        24,
     60.12,        33,
     60.14,        27,
     60.16,        20,
     60.18,        26,
      60.2,        25,
     60.22,        25,
     60.24,        32,
     60.26,        25,
     60.28,        23,
      60.3,        27,
     60.32,        22,
     60.34,        30,
     60.36,        18,
     60.38,        35,
      60.4,        39,
     60.42,        27,
     60.44,        29,
     60.46,        23,
     60.48,        20,
      60.5,        32,
     60.52,        33,
     60.54,        24,
     60.56,        34,
     60.58,        29,
      60.6,        31,
     60.62,        18,
     60.64,        31,
     60.66,        27,
     60.68,        20,
      60.7,        31,
     60.72,        31,
     60.74,        24,
     60.76,        28,
     60.78,        16,
      60.8,        31,
     60.82,        30,
     60.84,        26,
     60.86,        20,
     60.88,        20,
      60.9,        28,
     60.92,        24,
     60.94,        26,
     60.96,        30,
     60.98,        22,
        61,        29,
     61.02,        22,
     61.04,        32,
     61.06,        29,
     61.08,        34,
      61.1,        29,
     61.12,        26,
     61.14,        22,
     61.16,        24,
     61.18,        19,
      61.2,        27,
     61.22,        25,
     61.24,        30,
     61.26,        27,
     61.28,        31,
      61.3,        24,
     61.32,        23,
     61.34,        23,
     61.36,        35,
     61.38,        25,
      61.4,        26,
     61.42,        40,
     61.44,        31,
     61.46,        19,
     61.48,        21,
      61.5,        15,
     61.52,        24,
     61.54,        27,
     61.56,        19,
     61.58,        28,
      61.6,        25,
     61.62,        20,
     61.64,        37,
     61.66,        32,
     61.68,        31,
      61.7,        21,
     61.72,        27,
     61.74,        20,
     61.76,        29,
     61.78,        28,
      61.8,        31,
     61.82,        25,
     61.84,        28,
     61.86,        25,
     61.88,        27,
      61.9,        21,
     61.92,        17,
     61.94,        19,
     61.96,        24,
     61.98,        24,
        62,        25,
     62.02,        24,
     62.04,        26,
     62.06,        30,
     62.08,        30,
      62.1,        27,
     62.12,        27,
     62.14,        23,
     62.16,        19,
     62.18,        23,
      62.2,        25,
     62.22,        27,
     62.24,        28,
     62.26,        29,
     62.28,        29,
      62.3,        31,
     62.32,        22,
     62.34,        22,
     62.36,        29,
     62.38,        33,
      62.4,        27,
     62.42,        26,
     62.44,        22,
     62.46,        22,
     62.48,        36,
      62.5,        24,
     62.52,        22,
     62.54,        24,
     62.56,        23,
     62.58,        29,
      62.6,        25,
     62.62,        32,
     62.64,        35,
     62.66,        24,
     62.68,        21,
      62.7,        22,
     62.72,        23,
     62.74,        34,
     62.76,        19,
     62.78,        22,
      62.8,        36,
     62.82,        23,
     62.84,        35,
     62.86,        33,
     62.88,        28,
      62.9,        32,
     62.92,        28,
     62.94,        30,
     62.96,        30,
     62.98,        29,
        63,        26,
     63.02,        23,
     63.04,        31,
     63.06,        38,
     63.08,        19,
      63.1,        29,
     63.12,        28,
     63.14,        35,
     63.16,        25,
     63.18,        24,
      63.2,        34,
     63.22,        24,
     63.24,        32,
     63.26,        21,
     63.28,        31,
      63.3,        29,
     63.32,        27,
     63.34,        30,
     63.36,        38,
     63.38,        27,
      63.4,        27,
     63.42,        36,
     63.44,        22,
     63.46,        27,
     63.48,        31,
      63.5,        22,
     63.52,        30,
     63.54,        22,
     63.56,        42,
     63.58,        27,
      63.6,        30,
     63.62,        32,
     63.64,        30,
     63.66,        31,
     63.68,        23,
      63.7,        21,
     63.72,        29,
     63.74,        35,
     63.76,        32,
     63.78,        33,
      63.8,        35,
     63.82,        24,
     63.84,        31,
     63.86,        21,
     63.88,        39,
      63.9,        35,
     63.92,        28,
     63.94,        32,
     63.96,        29,
     63.98,        18,
        64,        33,
     64.02,        36,
     64.04,        34,
     64.06,        40,
     64.08,        29,
      64.1,        46,
     64.12,        41,
     64.14,        44,
     64.16,        35,
     64.18,        44,
      64.2,        51,
     64.22,        43,
     64.24,        55,
     64.26,        52,
     64.28,        43,
      64.3,        54,
     64.32,        46,
     64.34,        54,
     64.36,        77,
     64.38,        66,
      64.4,        51,
     64.42,        87,
     64.44,       105,
     64.46,       102,
     64.48,       111,
      64.5,       110,
     64.52,        96,
     64.54,       105,
     64.56,       152,
     64.58,       137,
      64.6,       155,
     64.62,       125,
     64.64,       128,
     64.66,       155,
     64.68,       119,
      64.7,       133,
     64.72,       161,
     64.74,       145,
     64.76,       155,
     64.78,       126,
      64.8,       127,
     64.82,       138,
     64.84,       128,
     64.86,       132,
     64.88,       115,
      64.9,       100,
     64.92,        96,
     64.94,       100,
     64.96,        95,
     64.98,        83,
        65,        83,
     65.02,        72,
     65.04,        60,
     65.06,        83,
     65.08,        64,
      65.1,        57,
     65.12,        50,
     65.14,        53,
     65.16,        66,
     65.18,        46,
      65.2,        34,
     65.22,        48,
     65.24,        37,
     65.26,        47,
     65.28,        48,
      65.3,        31,
     65.32,        39,
     65.34,        36,
     65.36,        40,
     65.38,        29,
      65.4,        37,
     65.42,        30,
     65.44,        40,
     65.46,        28,
     65.48,        27,
      65.5,        25,
     65.52,        26,
     65.54,        31,
     65.56,        33,
     65.58,        33,
      65.6,        32,
     65.62,        33,
     65.64,        36,
     65.66,        25,
     65.68,        28,
      65.7,        30,
     65.72,        32,
     65.74,        25,
     65.76,        30,
     65.78,        24,
      65.8,        26,
     65.82,        29,
     65.84,        36,
     65.86,        28,
     65.88,        31,
      65.9,        26,
     65.92,        26,
     65.94,        28,
     65.96,        36,
     65.98,        39,
        66,        22,
     66.02,        22,
     66.04,        26,
     66.06,        25,
     66.08,        26,
      66.1,        29,
     66.12,        22,
     66.14,        23,
     66.16,        29,
     66.18,        25,
      66.2,        39,
     66.22,        31,
     66.24,        22,
     66.26,        22,
     66.28,        25,
      66.3,        27,
     66.32,        21,
     66.34,        39,
     66.36,        24,
     66.38,        24,
      66.4,        31,
     66.42,        29,
     66.44,        36,
     66.46,        23,
     66.48,        32,
      66.5,        27,
     66.52,        28,
     66.54,        22,
     66.56,        34,
     66.58,        26,
      66.6,        27,
     66.62,        26,
     66.64,        24,
     66.66,        32,
     66.68,        33,
      66.7,        22,
     66.72,        23,
     66.74,        28,
     66.76,        26,
     66.78,        21,
      66.8,        31,
     66.82,        28,
     66.84,        33,
     66.86,        27,
     66.88,        21,
      66.9,        14,
     66.92,        29,
     66.94,        16,
     66.96,        28,
     66.98,        19,
        67,        36,
     67.02,        26,
     67.04,        34,
     67.06,        24,
     67.08,        18,
      67.1,        29,
     67.12,        25,
     67.14,        19,
     67.16,        26,
     67.18,        33,
      67.2,        36,
     67.22,        38,
     67.24,        33,
     67.26,        33,
     67.28,        27,
      67.3,        29,
     67.32,        24,
     67.34,        26,
     67.36,        22,
     67.38,        29,
      67.4,        22,
     67.42,        18,
     67.44,        34,
     67.46,        26,
     67.48,        24,
      67.5,        29,
     67.52,        20,
     67.54,        19,
     67.56,        30,
     67.58,        29,
      67.6,        28,
     67.62,        27,
     67.64,        27,
     67.66,        27,
     67.68,        35,
      67.7,        27,
     67.72,        31,
     67.74,        25,
     67.76,        32,
     67.78,        26,
      67.8,        26,
     67.82,        32,
     67.84,        29,
     67.86,        27,
     67.88,        24,
      67.9,        37,
     67.92,        19,
     67.94,        31,
     67.96,        21,
     67.98,        21,
        68,        30,
     68.02,        24,
     68.04,        26,
     68.06,        23,
     68.08,        27,
      68.1,        25,
     68.12,        21,
     68.14,        24,
     68.16,        28,
     68.18,        27,
      68.2,        30,
     68.22,        26,
     68.24,        22,
     68.26,        33,
     68.28,        31,
      68.3,        23,
     68.32,        29,
     68.34,        34,
     68.36,        24,
     68.38,        19,
      68.4,        29,
     68.42,        30,
     68.44,        25,
     68.46,        18,
     68.48,        30,
      68.5,        22,
     68.52,        28,
     68.54,        26,
     68.56,        35,
     68.58,        26,
      68.6,        26,
     68.62,        19,
     68.64,        14,
     68.66,        27,
     68.68,        27,
      68.7,        29,
     68.72,        33,
     68.74,        30,
     68.76,        33,
     68.78,        24,
      68.8,        20,
     68.82,        23,
     68.84,        17,
     68.86,        27,
     68.88,        26,
      68.9,        36,
     68.92,        24,
     68.94,        26,
     68.96,        26,
     68.98,        28,
        69,        18,
     69.02,        24,
     69.04,        29,
     69.06,        33,
     69.08,        33,
      69.1,        30,
     69.12,        21,
     69.14,        22,
     69.16,        14,
     69.18,        21,
      69.2,        24,
     69.22,        27,
     69.24,        25,
     69.26,        20,
     69.28,        23,
      69.3,        29,
     69.32,        21,
     69.34,        24,
     69.36,        23,
     69.38,        26,
      69.4,        31,
     69.42,        22,
     69.44,        17,
     69.46,        23,
     69.48,        24,
      69.5,        32,
     69.52,        24,
     69.54,        26,
     69.56,        30,
     69.58,        26,
      69.6,        38,
     69.62,        28,
     69.64,        28,
     69.66,        21,
     69.68,        14,
      69.7,        24,
     69.72,        21,
     69.74,        23,
     69.76,        32,
     69.78,        25,
      69.8,        26,
     69.82,        26,
     69.84,        24,
     69.86,        21,
     69.88,        23,
      69.9,        32,
     69.92,        26,
     69.94,        19,
     69.96,        29,
     69.98,        26,
        70,        19,
     70.02,        30,
     70.04,        18,
     70.06,        29,
     70.08,        24,
      70.1,        33,
     70.12,        32,
     70.14,        28,
     70.16,        33,
     70.18,        20,
      70.2,        25,
     70.22,        24,
     70.24,        19,
     70.26,        24,
     70.28,        25,
      70.3,        30,
     70.32,        28,
     70.34,        31,
     70.36,        24,
     70.38,        25,
      70.4,        25,
     70.42,        25,
     70.44,        23,
     70.46,        17,
     70.48,        22,
      70.5,        24,
     70.52,        25,
     70.54,        30,
     70.56,        23,
     70.58,        21,
      70.6,        27,
     70.62,        24,
     70.64,        23,
     70.66,        31,
     70.68,        28,
      70.7,        33,
     70.72,        26,
     70.74,        23,
     70.76,        19,
     70.78,        22,
      70.8,        30,
     70.82,        21,
     70.84,        28,
     70.86,        21,
     70.88,        26,
      70.9,        21,
     70.92,        27,
     70.94,        19,
     70.96,        24,
     70.98,        27,
        71,        30,
     71.02,        26,
     71.04,        28,
     71.06,        29,
     71.08,        13,
      71.1,        20,
     71.12,        28,
     71.14,        26,
     71.16,        24,
     71.18,        16,
      71.2,        24,
     71.22,        27,
     71.24,        27,
     71.26,        23,
     71.28,        18,
      71.3,        23,
     71.32,        31,
     71.34,        18,
     71.36,        25,
     71.38,        21,
      71.4,        26,
     71.42,        23,
     71.44,        28,
     71.46,        31,
     71.48,        17,
      71.5,        31,
     71.52,        23,
     71.54,        30,
     71.56,        18,
     71.58,        21,
      71.6,        24,
     71.62,        17,
     71.64,        22,
     71.66,        23,
     71.68,        18,
      71.7,        17,
     71.72,        26,
     71.74,        21,
     71.76,        15,
     71.78,        20,
      71.8,        26,
     71.82,        16,
     71.84,        24,
     71.86,        29,
     71.88,        21,
      71.9,        11,
     71.92,        24,
     71.94,        20,
     71.96,        23,
     71.98,        29,
        72,        37,
     72.02,        23,
     72.04,        26,
     72.06,        17,
     72.08,        24,
      72.1,        15,
     72.12,        22,
     72.14,        27,
     72.16,        28,
     72.18,        24,
      72.2,        29,
     72.22,        28,
     72.24,        17,
     72.26,        34,
     72.28,        25,
      72.3,        20,
     72.32,        23,
     72.34,        26,
     72.36,        18,
     72.38,        16,
      72.4,        25,
     72.42,        12,
     72.44,        22,
     72.46,        26,
     72.48,        25,
      72.5,        22,
     72.52,        26,
     72.54,        23,
     72.56,        30,
     72.58,        24,
      72.6,        25,
     72.62,        25,
     72.64,        19,
     72.66,        27,
     72.68,        25,
      72.7,        32,
     72.72,        19,
     72.74,        31,
     72.76,        25,
     72.78,        15,
      72.8,        28,
     72.82,        23,
     72.84,        15,
     72.86,        23,
     72.88,        23,
      72.9,        16,
     72.92,        26,
     72.94,        22,
     72.96,        38,
     72.98,        29,
        73,        25,
     73.02,        25,
     73.04,        27,
     73.06,        23,
     73.08,        29,
      73.1,        26,
     73.12,        23,
     73.14,        34,
     73.16,        25,
     73.18,        19,
      73.2,        23,
     73.22,        32,
     73.24,        29,
     73.26,        32,
     73.28,        21,
      73.3,        28,
     73.32,        33,
     73.34,        32,
     73.36,        24,
     73.38,        19,
      73.4,        21,
     73.42,        26,
     73.44,        21,
     73.46,        26,
     73.48,        18,
      73.5,        25,
     73.52,        20,
     73.54,        16,
     73.56,        18,
     73.58,        19,
      73.6,        24,
     73.62,        28,
     73.64,        18,
     73.66,        23,
     73.68,        29,
      73.7,        20,
     73.72,        29,
     73.74,        22,
     73.76,        17,
     73.78,        24,
      73.8,        27,
     73.82,        30,
     73.84,        32,
     73.86,        27,
     73.88,        33,
      73.9,        30,
     73.92,        30,
     73.94,        19,
     73.96,        34,
     73.98,        14,
        74,        34,
     74.02,        22,
     74.04,        24,
     74.06,        28,
     74.08,        29,
      74.1,        23,
     74.12,        18,
     74.14,        34,
     74.16,        23,
     74.18,        27,
      74.2,        24,
     74.22,        19,
     74.24,        25,
     74.26,        24,
     74.28,        28,
      74.3,        16,
     74.32,        20,
     74.34,        22,
     74.36,        27,
     74.38,        29,
      74.4,        22,
     74.42,        27,
     74.44,        22,
     74.46,        15,
     74.48,        30,
      74.5,        21,
     74.52,        27,
     74.54,        19,
     74.56,        22,
     74.58,        22,
      74.6,        28,
     74.62,        15,
     74.64,        23,
     74.66,        35,
     74.68,        24,
      74.7,        25,
     74.72,        25,
     74.74,        30,
     74.76,        21,
     74.78,        29,
      74.8,        29,
     74.82,        30,
     74.84,        27,
     74.86,        20,
     74.88,        29,
      74.9,        23,
     74.92,        23,
     74.94,        28,
     74.96,        30,
     74.98,        22,
        75,        27,
     75.02,        19,
     75.04,        19,
     75.06,        21,
     75.08,        20,
      75.1,        21,
     75.12,        30,
     75.14,        19,
     75.16,        22,
     75.18,        35,
      75.2,        20,
     75.22,        31,
     75.24,        19,
     75.26,        22,
     75.28,        28,
      75.3,        30,
     75.32,        26,
     75.34,        22,
     75.36,        21,
     75.38,        24,
      75.4,        17,
     75.42,        23,
     75.44,        31,
     75.46,        28,
     75.48,        11,
      75.5,        28,
     75.52,        19,
     75.54,        30,
     75.56,        23,
     75.58,        23,
      75.6,        29,
     75.62,        29,
     75.64,        22,
     75.66,        26,
     75.68,        34,
      75.7,        29,
     75.72,        29,
     75.74,        30,
     75.76,        26,
     75.78,        26,
      75.8,        21,
     75.82,        23,
     75.84,        25,
     75.86,        30,
     75.88,        29,
      75.9,        26,
     75.92,        27,
     75.94,        29,
     75.96,        31,
     75.98,        17,
        76,        25,
     76.02,        16,
     76.04,        26,
     76.06,        19,
     76.08,        20,
      76.1,        23,
     76.12,        28,
     76.14,        23,
     76.16,        30,
     76.18,        17,
      76.2,        30,
     76.22,        30,
     76.24,        20,
     76.26,        32,
     76.28,        21,
      76.3,        30,
     76.32,        28,
     76.34,        22,
     76.36,        32,
     76.38,        33,
      76.4,        24,
     76.42,        21,
     76.44,        22,
     76.46,        25,
     76.48,        24,
      76.5,        29,
     76.52,        22,
     76.54,        27,
     76.56,        35,
     76.58,        17,
      76.6,        27,
     76.62,        23,
     76.64,        21,
     76.66,        23,
     76.68,        22,
      76.7,        21,
     76.72,        22,
     76.74,        31,
     76.76,        21,
     76.78,        26,
      76.8,        21,
     76.82,        33,
     76.84,        22,
     76.86,        34,
     76.88,        24,
      76.9,        22,
     76.92,        19,
     76.94,        18,
     76.96,        25,
     76.98,        24,
        77,        28,
     77.02,        19,
     77.04,        25,
     77.06,        15,
     77.08,        22,
      77.1,        26,
     77.12,        38,
     77.14,        24,
     77.16,        27,
     77.18,        16,
      77.2,        21,
     77.22,        19,
     77.24,        20,
     77.26,        22,
     77.28,        23,
      77.3,        21,
     77.32,        34,
     77.34,        27,
     77.36,        22,
     77.38,        27,
      77.4,        27,
     77.42,        24,
     77.44,        34,
     77.46,        24,
     77.48,        40,
      77.5,        26,
     77.52,        26,
     77.54,        15,
     77.56,        31,
     77.58,        24,
      77.6,        18,
     77.62,        31,
     77.64,        27,
     77.66,        22,
     77.68,        28,
      77.7,        24,
     77.72,        22,
     77.74,        24,
     77.76,        22,
     77.78,        21,
      77.8,        20,
     77.82,        28,
     77.84,        36,
     77.86,        26,
     77.88,        22,
      77.9,        28,
     77.92,        22,
     77.94,        20,
     77.96,        29,
     77.98,        25,
        78,        31,
     78.02,        23,
     78.04,        26,
     78.06,        19,
     78.08,        26,
      78.1,        34,
     78.12,        25,
     78.14,        33,
     78.16,        30,
     78.18,        33,
      78.2,        27,
     78.22,        29,
     78.24,        20,
     78.26,        24,
     78.28,        25,
      78.3,        23,
     78.32,        30,
     78.34,        17,
     78.36,        22,
     78.38,        29,
      78.4,        17,
     78.42,        27,
     78.44,        16,
     78.46,        21,
     78.48,        31,
      78.5,        28,
     78.52,        22,
     78.54,        32,
     78.56,        25,
     78.58,        22,
      78.6,        18,
     78.62,        31,
     78.64,        18,
     78.66,        23,
     78.68,        22,
      78.7,        25,
     78.72,        20,
     78.74,        18,
     78.76,        33,
     78.78,        37,
      78.8,        28,
     78.82,        21,
     78.84,        28,
     78.86,        19,
     78.88,        24,
      78.9,        18,
     78.92,        24,
     78.94,        26,
     78.96,        23,
     78.98,        27,
        79,        28,
     79.02,        26,
     79.04,        25,
     79.06,        23,
     79.08,        23,
      79.1,        25,
     79.12,        20,
     79.14,        29,
     79.16,        23,
     79.18,        19,
      79.2,        27,
     79.22,        25,
     79.24,        23,
     79.26,        21,
     79.28,        24,
      79.3,        28,
     79.32,        27,
     79.34,        23,
     79.36,        24,
     79.38,        31,
      79.4,        20,
     79.42,        18,
     79.44,        21,
     79.46,        18,
     79.48,        19,
      79.5,        22,
     79.52,        18,
     79.54,        28,
     79.56,        24,
     79.58,        32,
      79.6,        26,
     79.62,        36,
     79.64,        24,
     79.66,        25,
     79.68,        22,
      79.7,        19,
     79.72,        22,
     79.74,        22,
     79.76,        29,
     79.78,        20,
      79.8,        23,
     79.82,        30,
     79.84,        29,
     79.86,        36,
     79.88,        29,
      79.9,        29,
     79.92,        27,
     79.94,        26,
     79.96,        22,
     79.98,        30,
        80,        28,
     80.02,        23,
     80.04,        23,
     80.06,        24,
     80.08,        32,
      80.1,        33,
     80.12,        31,
     80.14,        32,
     80.16,        32,
     80.18,        18,
      80.2,        24,
     80.22,        20,
     80.24,        23,
     80.26,        28,
     80.28,        13,
      80.3,        26,
     80.32,        20,
     80.34,        25,
     80.36,        31,
     80.38,        21,
      80.4,        20,
     80.42,        23,
     80.44,        28,
     80.46,        33,
     80.48,        18,
      80.5,        32,
     80.52,        33,
     80.54,        39,
     80.56,        27,
     80.58,        31,
      80.6,        29,
     80.62,        21,
     80.64,        26,
     80.66,        32,
     80.68,        36,
      80.7,        28,
     80.72,        33,
     80.74,        34,
     80.76,        31,
     80.78,        30,
      80.8,        35,
     80.82,        36,
     80.84,        20,
     80.86,        26,
     80.88,        36,
      80.9,        33,
     80.92,        31,
     80.94,        30,
     80.96,        39,
     80.98,        31,
        81,        48,
     81.02,        46,
     81.04,        43,
     81.06,        42,
     81.08,        34,
      81.1,        44,
     81.12,        62,
     81.14,        52,
     81.16,        52,
     81.18,        49,
      81.2,        42,
     81.22,        56,
     81.24,        54,
     81.26,        60,
     81.28,        57,
      81.3,        59,
     81.32,        60,
     81.34,        75,
     81.36,        85,
     81.38,        92,
      81.4,        92,
     81.42,        88,
     81.44,        92,
     81.46,        94,
     81.48,       119,
      81.5,       105,
     81.52,       114,
     81.54,       138,
     81.56,       126,
     81.58,       129,
      81.6,       145,
     81.62,       179,
     81.64,       190,
     81.66,       186,
     81.68,       173,
      81.7,       171,
     81.72,       196,
     81.74,       211,
     81.76,       226,
     81.78,       218,
      81.8,       212,
     81.82,       236,
     81.84,       193,
     81.86,       206,
     81.88,       198,
      81.9,       215,
     81.92,       212,
     81.94,       209,
     81.96,       211,
     81.98,       197,
        82,       193,
     82.02,       178,
     82.04,       192,
     82.06,       208,
     82.08,       170,
      82.1,       145,
     82.12,       158,
     82.14,       160,
     82.16,       115,
     82.18,       125,
      82.2,       121,
     82.22,       140,
     82.24,       106,
     82.26,       108,
     82.28,        83,
      82.3,        88,
     82.32,        84,
     82.34,        75,
     82.36,        80,
     82.38,        80,
      82.4,        70,
     82.42,        56,
     82.44,        59,
     82.46,        60,
     82.48,        50,
      82.5,        49,
     82.52,        54,
     82.54,        49,
     82.56,        38,
     82.58,        38,
      82.6,        45,
     82.62,        36,
     82.64,        48,
     82.66,        39,
     82.68,        40,
      82.7,        39,
     82.72,        30,
     82.74,        34,
     82.76,        39,
     82.78,        27,
      82.8,        27,
     82.82,        24,
     82.84,        24,
     82.86,        39,
     82.88,        26,
      82.9,        36,
     82.92,        43,
     82.94,        29,
     82.96,        33,
     82.98,        25,
        83,        21,
     83.02,        33,
     83.04,        29,
     83.06,        24,
     83.08,        25,
      83.1,        28,
     83.12,        28,
     83.14,        31,
     83.16,        18,
     83.18,        16,
      83.2,        20,
     83.22,        26,
     83.24,        23,
     83.26,        23,
     83.28,        25,
      83.3,        23,
     83.32,        28,
     83.34,        17,
     83.36,        32,
     83.38,        17,
      83.4,        23,
     83.42,        25,
     83.44,        23,
     83.46,        21,
     83.48,        19,
      83.5,        28,
     83.52,        23,
     83.54,        16,
     83.56,        19,
     83.58,        27,
      83.6,        25,
     83.62,        20,
     83.64,        30,
     83.66,        16,
     83.68,        16,
      83.7,        26,
     83.72,        15,
     83.74,        20,
     83.76,        25,
     83.78,        23,
      83.8,        15,
     83.82,        22,
     83.84,        16,
     83.86,        18,
     83.88,        19,
      83.9,        26,
     83.92,        27,
     83.94,        12,
     83.96,        19,
     83.98,        18,
        84,        12,
     84.02,        25,
     84.04,        22,
     84.06,        21,
     84.08,        18,
      84.1,        20,
     84.12,        16,
     84.14,        24,
     84.16,        21,
     84.18,        18,
      84.2,        19,
     84.22,        18,
     84.24,        26,
     84.26,        28,
     84.28,        22,
      84.3,        20,
     84.32,        19,
     84.34,        22,
     84.36,        16,
     84.38,        17,
      84.4,        23,
     84.42,        20,
     84.44,        21,
     84.46,        27,
     84.48,        19,
      84.5,        13,
     84.52,        25,
     84.54,        20,
     84.56,        18,
     84.58,        19,
      84.6,        22,
     84.62,        16,
     84.64,        14,
     84.66,        23,
     84.68,        15,
      84.7,        15,
     84.72,        18,
     84.74,        23,
     84.76,        25,
     84.78,        18,
      84.8,        16,
     84.82,        18,
     84.84,        16,
     84.86,        17,
     84.88,        18,
      84.9,        17,
     84.92,        19,
     84.94,        17,
     84.96,        15,
     84.98,        20,
        85,        20,
     85.02,        20,
     85.04,        18,
     85.06,        19,
     85.08,        15,
      85.1,        17,
     85.12,        19,
     85.14,        11,
     85.16,        26,
     85.18,        13,
      85.2,        17,
     85.22,        14,
     85.24,        23,
     85.26,        20,
     85.28,        17,
      85.3,         9,
     85.32,        23,
     85.34,        16,
     85.36,        20,
     85.38,        17,
      85.4,        21,
     85.42,        15,
     85.44,        12,
     85.46,        15,
     85.48,        18,
      85.5,        15,
     85.52,        22,
     85.54,        16,
     85.56,        23,
     85.58,        12,
      85.6,        15,
     85.62,        18,
     85.64,        18,
     85.66,        15,
     85.68,        14,
      85.7,        16,
     85.72,        18,
     85.74,        14,
     85.76,        15,
     85.78,        16,
      85.8,        23,
     85.82,        10,
     85.84,        14,
     85.86,        22,
     85.88,        15,
      85.9,        15,
     85.92,        15,
     85.94,        14,
     85.96,        13,
     85.98,        14,
        86,        18,
     86.02,        22,
     86.04,        17,
     86.06,         9,
     86.08,        15,
      86.1,        22,
     86.12,        22,
     86.14,        21,
     86.16,        15,
     86.18,        12,
      86.2,        13,
     86.22,        19,
     86.24,         9,
     86.26,        18,
     86.28,        18,
      86.3,        13,
     86.32,        16,
     86.34,        13,
     86.36,         9,
     86.38,        18,
      86.4,        10,
     86.42,        15,
     86.44,        22,
     86.46,        19,
     86.48,        17,
      86.5,        13,
     86.52,        15,
     86.54,        19,
     86.56,        19,
     86.58,        13,
      86.6,        16,
     86.62,        15,
     86.64,        10,
     86.66,        11,
     86.68,        14,
      86.7,        16,
     86.72,         9,
     86.74,         9,
     86.76,        10,
     86.78,        14,
      86.8,        11,
     86.82,        12,
     86.84,        18,
     86.86,        16,
     86.88,        18,
      86.9,        21,
     86.92,        22,
     86.94,        19,
     86.96,        10,
     86.98,        15,
        87,        14,
     87.02,        12,
     87.04,        10,
     87.06,        14,
     87.08,        17,
      87.1,        16,
     87.12,        12,
     87.14,        17,
     87.16,        16,
     87.18,        10,
      87.2,        11,
     87.22,        19,
     87.24,        15,
     87.26,        13,
     87.28,        10,
      87.3,        13,
     87.32,        16,
     87.34,         7,
     87.36,        14,
     87.38,        11,
      87.4,        10,
     87.42,        17,
     87.44,        19,
     87.46,        16,
     87.48,        21,
      87.5,         7,
     87.52,        12,
     87.54,        14,
     87.56,        14,
     87.58,        11,
      87.6,        17,
     87.62,         9,
     87.64,         9,
     87.66,        14,
     87.68,        11,
      87.7,         8,
     87.72,        11,
     87.74,        19,
     87.76,        16,
     87.78,         9,
      87.8,        16,
     87.82,        11,
     87.84,        12,
     87.86,        12,
     87.88,        12,
      87.9,        10,
     87.92,        18,
     87.94,        22,
     87.96,         9,
     87.98,         7,
        88,        17,
     88.02,        13,
     88.04,         6,
     88.06,        15,
     88.08,        17,
      88.1,        15,
     88.12,        13,
     88.14,         9,
     88.16,        12,
     88.18,        17,
      88.2,        20,
     88.22,        10,
     88.24,        13,
     88.26,        10,
     88.28,        14,
      88.3,        11,
     88.32,        14,
     88.34,        13,
     88.36,         9,
     88.38,        18,
      88.4,         9,
     88.42,        17,
     88.44,         8,
     88.46,        13,
     88.48,        20,
      88.5,        14,
     88.52,        15,
     88.54,        15,
     88.56,        10,
     88.58,        13,
      88.6,        12,
     88.62,        13,
     88.64,        13,
     88.66,        16,
     88.68,        15,
      88.7,        20,
     88.72,        12,
     88.74,        17,
     88.76,        18,
     88.78,         9,
      88.8,        11,
     88.82,        14,
     88.84,        20,
     88.86,        13,
     88.88,        15,
      88.9,         7,
     88.92,        16,
     88.94,        18,
     88.96,        10,
     88.98,        26,
        89,        22,
     89.02,        19,
     89.04,        17,
     89.06,        11,
     89.08,        11,
      89.1,        11,
     89.12,        13,
     89.14,        14,
     89.16,        16,
     89.18,        12,
      89.2,        11,
     89.22,        13,
     89.24,        10,
     89.26,        13,
     89.28,        15,
      89.3,        16,
     89.32,         6,
     89.34,        15,
     89.36,        16,
     89.38,        17,
      89.4,         4,
     89.42,        12,
     89.44,        13,
     89.46,        12,
     89.48,        10,
      89.5,        16,
     89.52,        11,
     89.54,        21,
     89.56,        16,
     89.58,        17,
      89.6,         8,
     89.62,        12,
     89.64,        11,
     89.66,        14,
     89.68,        19,
      89.7,         7,
     89.72,        11,
     89.74,        13,
     89.76,        12,
     89.78,        19,
      89.8,        14,
     89.82,        14,
     89.84,        16,
     89.86,        11,
     89.88,        11,
      89.9,        23,
     89.92,        12,
     89.94,         8,
     89.96,         8,
     89.98,        13,
        90,        12,
     90.02,        11,
     90.04,        14,
     90.06,        10,
     90.08,        11,
      90.1,        13,
     90.12,        14,
     90.14,        16,
     90.16,        11,
     90.18,        16,
      90.2,        15,
     90.22,        10,
     90.24,         7,
     90.26,        19,
     90.28,        16,
      90.3,        11,
     90.32,        11,
     90.34,        11,
     90.36,        11,
     90.38,        15,
      90.4,        12,
     90.42,        14,
     90.44,         9,
     90.46,        15,
     90.48,        13,
      90.5,         8,
     90.52,         9,
     90.54,        16,
     90.56,        20,
     90.58,        10,
      90.6,        13,
     90.62,        12,
     90.64,        16,
     90.66,        18,
     90.68,        23,
      90.7,        16,
     90.72,        12,
     90.74,        13,
     90.76,        10,
     90.78,        16,
      90.8,        15,
     90.82,         5,
     90.84,        13,
     90.86,        10,
     90.88,        15,
      90.9,        15,
     90.92,        11,
     90.94,        16,
     90.96,        14,
     90.98,        15,
        91,        10,
     91.02,        16,
     91.04,        14,
     91.06,         8,
     91.08,         8,
      91.1,        15,
     91.12,         7,
     91.14,         9,
     91.16,        14,
     91.18,        15,
      91.2,        15,
     91.22,         9,
     91.24,        14,
     91.26,        17,
     91.28,        18,
      91.3,         9,
     91.32,        16,
     91.34,        11,
     91.36,        12,
     91.38,         9,
      91.4,        12,
     91.42,         8,
     91.44,        17,
     91.46,        16,
     91.48,        18,
      91.5,        11,
     91.52,        18,
     91.54,        12,
     91.56,        16,
     91.58,        11,
      91.6,        10,
     91.62,        10,
     91.64,        13,
     91.66,        19,
     91.68,        14,
      91.7,        11,
     91.72,        12,
     91.74,        10,
     91.76,        15,
     91.78,         9,
      91.8,        13,
     91.82,        14,
     91.84,        15,
     91.86,        14,
     91.88,        10,
      91.9,        23,
     91.92,        12,
     91.94,        15,
     91.96,        14,
     91.98,        12,
        92,        16,
     92.02,        10,
     92.04,        15,
     92.06,        12,
     92.08,         3,
      92.1,        14,
     92.12,        10,
     92.14,        24,
     92.16,        13,
     92.18,        13,
      92.2,        10,
     92.22,        13,
     92.24,        11,
     92.26,        14,
     92.28,         9,
      92.3,        10,
     92.32,        15,
     92.34,        16,
     92.36,        12,
     92.38,        13,
      92.4,        13,
     92.42,        15,
     92.44,        11,
     92.46,        16,
     92.48,         7,
      92.5,        11,
     92.52,        18,
     92.54,         8,
     92.56,        13,
     92.58,         8,
      92.6,        13,
     92.62,        14,
     92.64,        13,
     92.66,        15,
     92.68,        17,
      92.7,         9,
     92.72,        16,
     92.74,        12,
     92.76,        14,
     92.78,        12,
      92.8,        10,
     92.82,        10,
     92.84,        13,
     92.86,        22,
     92.88,         6,
      92.9,        12,
     92.92,        10,
     92.94,         6,
     92.96,        11,
     92.98,        20,
        93,         9,
     93.02,        11,
     93.04,         5,
     93.06,        12,
     93.08,        22,
      93.1,        12,
     93.12,        13,
     93.14,        12,
     93.16,        15,
     93.18,        13,
      93.2,         9,
     93.22,         8,
     93.24,        20,
     93.26,        13,
     93.28,        11,
      93.3,        10,
     93.32,        11,
     93.34,        15,
     93.36,        11,
     93.38,        21,
      93.4,        17,
     93.42,        20,
     93.44,         7,
     93.46,         9,
     93.48,        13,
      93.5,        14,
     93.52,        15,
     93.54,         7,
     93.56,        16,
     93.58,        18,
      93.6,        11,
     93.62,        10,
     93.64,        13,
     93.66,        11,
     93.68,        10,
      93.7,        20,
     93.72,        19,
     93.74,         6,
     93.76,        14,
     93.78,        16,
      93.8,        10,
     93.82,        12,
     93.84,        17,
     93.86,        14,
     93.88,        13,
      93.9,        20,
     93.92,        21,
     93.94,        15,
     93.96,        10,
     93.98,        11,
        94,        12,
     94.02,        15,
     94.04,        17,
     94.06,         4,
     94.08,        14,
      94.1,        14,
     94.12,        10,
     94.14,        17,
     94.16,        11,
     94.18,         8,
      94.2,        13,
     94.22,        12,
     94.24,        16,
     94.26,        10,
     94.28,        18,
      94.3,        14,
     94.32,        14,
     94.34,        13,
     94.36,        13,
     94.38,        13,
      94.4,         9,
     94.42,        17,
     94.44,        18,
     94.46,        17,
     94.48,        12,
      94.5,        20,
     94.52,        18,
     94.54,         6,
     94.56,        17,
     94.58,        13,
      94.6,        13,
     94.62,        17,
     94.64,        10,
     94.66,        12,
     94.68,        11,
      94.7,        13,
     94.72,        14,
     94.74,        11,
     94.76,        17,
     94.78,        13,
      94.8,        14,
     94.82,        25,
     94.84,        10,
     94.86,        11,
     94.88,        19,
      94.9,        13,
     94.92,        12,
     94.94,        14,
     94.96,        11,
     94.98,        14,
        95,        12,
     95.02,         9,
     95.04,        12,
     95.06,        15,
     95.08,        20,
      95.1,        16,
     95.12,        16,
     95.14,        18,
     95.16,        13,
     95.18,         9,
      95.2,        14,
     95.22,        11,
     95.24,         7,
     95.26,         8,
     95.28,        16,
      95.3,        17,
     95.32,        14,
     95.34,        13,
     95.36,        18,
     95.38,        10,
      95.4,        14,
     95.42,         8,
     95.44,        16,
     95.46,         8,
     95.48,        13,
      95.5,         7,
     95.52,         9,
     95.54,         9,
     95.56,        12,
     95.58,         9,
      95.6,         8,
     95.62,        15,
     95.64,        18,
     95.66,         9,
     95.68,        11,
      95.7,        16,
     95.72,        13,
     95.74,        18,
     95.76,         8,
     95.78,        13,
      95.8,        17,
     95.82,        14,
     95.84,        10,
     95.86,        12,
     95.88,        15,
      95.9,        10,
     95.92,        12,
     95.94,        16,
     95.96,        16,
     95.98,        14,
        96,        13,
     96.02,         9,
     96.04,         9,
     96.06,        15,
     96.08,        16,
      96.1,        15,
     96.12,        20,
     96.14,        16,
     96.16,        11,
     96.18,         7,
      96.2,        18,
     96.22,         6,
     96.24,        15,
     96.26,        15,
     96.28,        19,
      96.3,         7,
     96.32,        20,
     96.34,        14,
     96.36,        13,
     96.38,         7,
      96.4,        17,
     96.42,        11,
     96.44,        14,
     96.46,        14,
     96.48,         9,
      96.5,         9,
     96.52,        11,
     96.54,        17,
     96.56,        18,
     96.58,        11,
      96.6,        12,
     96.62,        14,
     96.64,        14,
     96.66,         8,
     96.68,         5,
      96.7,        16,
     96.72,        16,
     96.74,        14,
     96.76,        14,
     96.78,        11,
      96.8,        16,
     96.82,        17,
     96.84,        15,
     96.86,        15,
     96.88,        18,
      96.9,        15,
     96.92,        15,
     96.94,        18,
     96.96,        21,
     96.98,        19,
        97,        11,
     97.02,        17,
     97.04,        19,
     97.06,         9,
     97.08,        19,
      97.1,        20,
     97.12,        11,
     97.14,        25,
     97.16,        17,
     97.18,        21,
      97.2,        22,
     97.22,        19,
     97.24,        20,
     97.26,         8,
     97.28,        19,
      97.3,        18,
     97.32,        25,
     97.34,        21,
     97.36,        22,
     97.38,        32,
      97.4,        27,
     97.42,        31,
     97.44,        24,
     97.46,        29,
     97.48,        23,
      97.5,        21,
     97.52,        27,
     97.54,        20,
     97.56,        19,
     97.58,        27,
      97.6,        34,
     97.62,        31,
     97.64,        26,
     97.66,        26,
     97.68,        23,
      97.7,        34,
     97.72,        36,
     97.74,        29,
     97.76,        35,
     97.78,        42,
      97.8,        42,
     97.82,        33,
     97.84,        48,
     97.86,        35,
     97.88,        49,
      97.9,        40,
     97.92,        55,
     97.94,        38,
     97.96,        53,
     97.98,        58,
        98,        57,
     98.02,        49,
     98.04,        62,
     98.06,        55,
     98.08,        72,
      98.1,        65,
     98.12,        46,
     98.14,        58,
     98.16,        87,
     98.18,        73,
      98.2,        69,
     98.22,        76,
     98.24,        57,
     98.26,        75,
     98.28,        70,
      98.3,        58,
     98.32,        67,
     98.34,        91,
     98.36,        77,
     98.38,        68,
      98.4,        66,
     98.42,        56,
     98.44,        59,
     98.46,        66,
     98.48,        71,
      98.5,        63,
     98.52,        50,
     98.54,        56,
     98.56,        53,
     98.58,        48,
      98.6,        57,
     98.62,        45,
     98.64,        42,
     98.66,        47,
     98.68,        39,
      98.7,        46,
     98.72,        34,
     98.74,        24,
     98.76,        35,
     98.78,        29,
      98.8,        40,
     98.82,        39,
     98.84,        28,
     98.86,        20,
     98.88,        33,
      98.9,        23,
     98.92,        38,
     98.94,        26,
     98.96,        26,
     98.98,        14,
        99,        25,
     99.02,        28,
     99.04,        29,
     99.06,        22,
     99.08,        31,
      99.1,        30,
     99.12,        23,
     99.14,        20,
     99.16,        21,
     99.18,        22,
      99.2,        24,
     99.22,        25,
     99.24,        19,
     99.26,        25,
     99.28,        14,
      99.3,        14,
     99.32,        16,
     99.34,        15,
     99.36,        19,
     99.38,        20,
      99.4,        18,
     99.42,        14,
     99.44,        16,
     99.46,        21,
     99.48,        14,
      99.5,        18,
     99.52,        14,
     99.54,        25,
     99.56,        14,
     99.58,        16,
      99.6,        18,
     99.62,        13,
     99.64,        17,
     99.66,        13,
     99.68,        15,
      99.7,        13,
     99.72,        12,
     99.74,        17,
     99.76,        11,
     99.78,         0,
      99.8,         0,
     99.82,         0,
     99.84,         0,
     99.86,         0,
     99.88,         0,
      99.9,         0,
     99.92,         0,
     99.94,         0,
     99.96,         0,
     99.98,         0,
       100,         0,
